0.0571481464340296
0.0571481464340296
0.0571481464340296
0.0612301568936032
0.0612301568936032
0.0612301568936032
0.0641181098718028
0.0659601055213631
0.0743740454482336
0.0734761882723238
0.0755681029296075
0.0775581987318974
0.0833341046882966
0.0821863285046573
0.0870180959874122
0.089804230110618
0.0907020872865334
0.0938862405701915
0.0979682510297651
0.100310084694778
0.106234090803913
0.110214282408486
0.114000092562602
0.122460313787206
0.122460313787206
0.123608089970846
0.12654232424678
0.134706345165927
0.13729809783867
0.143222103947804
0.149146110056932
0.159105845327914
0.165076132734769
0.174637848845292
0.181006155412605
0.19016985236267
0.197935854121352
0.20694219465915
0.217549868098316
0.229397880316574
0.241245892534843
0.253093904753099
0.261054287962251
0.271060304530952
0.283963530337407
0.286990327208789
0.299097514694327
0.311084370805772
0.317008376914907
0.322932383024041
0.326560836765884
0.330753922340005
0.344499467765088
0.354792428379714
0.351052899523325
0.351052899523325
0.346970889063751
0.344027398528278
0.337399916693696
0.328097375850442
0.321562456611302
0.30164298606936
0.281936409496939
0.261831813764082
0.24280094413849
0.217725737029688
0.199490905725013
0.172666265562112
0.152098856851962
0.130068959133628
0.116952839357632
0.0934141713333679
0.0756421530059839
0.0617114823899694
0.0482621372703429
0.037376776044803
0.0261674457351887
0.0173647429073932
0.0106354422178105
0.00408201045957355
0.00408201045957355
0.00183273939001499
0
-0.00185125190910055
-0.00408201045957355
-0.00408201045957355
-0.00408201045957355
-0.00921923450733179
-0.00934882214097463
-0.0122460313787206
-0.00974684130143258
-0.00816402091914709
-0.0123663627528073
-0.0163280418382942
-0.0122460313787206
-0.0122460313787206
-0.0122460313787206
-0.0153931596241963
-0.0195029388624115
-0.0163280418382942
-0.0163280418382942
-0.0186791317628538
-0.0201879020687729
-0.010292960614619
-0.0157541537464732
-0.0147729902346505
-0.0122460313787206
-0.0134030638219064
-0.013329013745547
-0.00816402091914709
-0.0133660387837255
-0.0204100522978677
-0.0204100522978677
-0.0163650668764752
-0.00816402091914709
-0.00816402091914709
-0.0136529828296359
-0.0195769889387708
-0.021418984588325
-0.0216411348174226
-0.0122460313787206
-0.0122460313787206
-0.0128847132873448
-0.0224371731383385
-0.0204100522978677
-0.0187531818392229
-0.0198269079465003
-0.0204100522978677
-0.0173092053501195
-0.0212708844355967
-0.0244920627574413
-0.0244920627574413
-0.0244920627574413
-0.0244920627574413
-0.0263988522238156
-0.0285740732170148
-0.0244920627574413
-0.027842828712919
-0.0285740732170148
-0.0285740732170148
-0.0292868052020153
-0.0326560836765884
-0.0326560836765884
-0.0326560836765884
-0.0286573795529302
-0.0256861202388057
-0.0326560836765884
-0.0299347433702028
-0.029453417873839
-0.0304993752024748
-0.0367380941361619
-0.0320914518443165
-0.0309807006988482
-0.0324894710047743
-0.0305826815383903
-0.0365066876475184
-0.0310454945156709
-0.0285740732170148
-0.0326560836765884
-0.0326560836765884
-0.03347063451659
-0.0367380941361619
-0.0330726153561319
-0.0367380941361619
-0.0285740732170148
-0.0304345813856617
-0.0363585874947901
-0.0311935946683994
-0.0351830425325158
-0.0397556347480043
-0.0338316286388695
-0.0292405239042879
-0.0326560836765884
-0.0326560836765884
-0.0368769380293417
-0.0408201045957355
-0.0367380941361619
-0.0367380941361619
-0.0462165039107695
-0.0426713565048384
-0.0276577035220123
-0.0217336974128772
-0.0285740732170148
-0.0238533808488025
-0.020650715046041
-0.0285740732170148
-0.0323783958902176
-0.0197991391678712
-0.0190586384042116
-0.0285740732170148
-0.0315823575693084
-0.0270375341324666
-0.0230203174897034
-0.0285740732170148
-0.0285740732170148
-0.0285740732170148
-0.0326560836765884
-0.0326560836765884
-0.0339056787152383
-0.0253158698569917
-0.0295922617670184
-0.0326560836765884
-0.0320359142870427
-0.0285740732170148
-0.0287962234461027
-0.0347202295552376
-0.0367380941361619
-0.0408201045957355
-0.0373119822279891
-0.0326560836765884
-0.035766186883883
-0.0376081825334371
-0.038108020548899
-0.0367380941361619
-0.0344240292497832
-0.0286481232933743
-0.0345721294025091
-0.0329800527606865
-0.027056046651552
-0.0312121071874776
-0.0344980793261522
-0.0256120701624486
-0.0292960614615615
-0.0300920997824801
-0.0244920627574413
-0.0266580274910916
-0.0285740732170148
-0.0326560836765884
-0.0290461424538409
-0.0299439996297492
-0.0294441616142982
-0.0254639700097177
-0.0313879761188525
-0.0280001851251964
-0.026907946498821
-0.0283982042856543
-0.0265099273383631
-0.0285740732170148
-0.0285740732170148
-0.0320359142870338
-0.0367380941361619
-0.0336742722265947
-0.0326560836765884
-0.0299902809274789
-0.0330818716156784
-0.0322025269588588
-0.0286296107742789
-0.0367380941361619
-0.0367380941361619
-0.0352663488684265
-0.0326560836765884
-0.0326560836765884
-0.0297403619197548
-0.0278983662701953
-0.0270097653538221
-0.0326560836765884
-0.0326560836765884
-0.0366177627620655
-0.0326560836765884
-0.0362197436016085
-0.0367380941361619
-0.033572453371599
-0.0367380941361619
-0.0367380941361619
-0.0326560836765884
-0.0326560836765884
-0.0246216503910744
-0.0305456565002092
-0.0326560836765884
-0.0285740732170148
-0.0251585134447229
-0.0285740732170148
-0.0255565326051804
-0.0244920627574413
-0.0244920627574413
-0.0244920627574413
-0.0244920627574413
-0.0285555606979195
-0.0267505900865486
-0.0281575415374622
-0.0271486092470066
-0.0212246031378775
-0.0296015180265649
-0.0297866432174819
-0.0285740732170148
-0.0285740732170148
-0.0244920627574413
-0.0265654648956367
-0.0285740732170148
-0.0285740732170148
-0.0250566945897218
-0.0244920627574413
-0.0244920627574413
-0.0253714074142631
-0.0258527329106365
-0.0208913777942316
-0.0268153839033664
-0.0244920627574413
-0.0244920627574413
-0.0244920627574413
-0.0178553246633034
-0.0237793307724323
-0.0297033368815659
-0.029684824362481
-0.0278428287129217
-0.0270653029110916
-0.0282408478733794
-0.026667283750638
-0.0285740732170148
-0.0285740732170148
-0.0285740732170148
-0.0299532558892956
-0.0358772619984248
-0.0204100522978677
-0.0345258481047635
-0.0314897949738586
-0.0244920627574413
-0.0285740732170148
-0.0306011940574831
-0.0326560836765884
-0.0269449715370043
-0.0279631600870069
-0.0301939186374837
-0.0214189845883328
-0.0204100522978677
-0.0230851113065187
-0.0281390290183784
-0.0244920627574413
-0.0203360022215107
-0.00848799000324104
-0.00036099412227905
-0.00296200305456369
-0.0114870180959843
-0.0174110242051181
-0.0204100522978677
-0.0244920627574413
-0.0244920627574413
-0.0244920627574413
-0.0223631230619755
-0.0204100522978677
-0.0204100522978677
-0.0239829684824343
-0.0244920627574413
-0.0244920627574413
-0.0254269449715367
-0.0285740732170148
-0.0244920627574413
-0.0268709214606361
-0.0285740732170148
-0.0285740732170148
-0.0285740732170148
-0.0285740732170148
-0.0285740732170148
-0.0285740732170148
-0.0285740732170148
-0.0408201045957355
-0.0381913268848118
-0.0285740732170148
-0.0308048317674814
-0.0367288378766128
-0.038570833526171
-0.0444948396353021
-0.0463368352848637
-0.0489841255148825
-0.044902115055309
-0.044902115055309
-0.0360994122275232
-0.0326560836765884
-0.0326560836765884
-0.0326560836765884
-0.0326560836765884
-0.0285740732170148
-0.0285740732170148
-0.0285740732170148
-0.0285740732170148
-0.0276854723006468
-0.027222659323366
-0.0331466654324987
-0.0390706715416296
-0.0527884481880998
-0.0253436386356538
0.0107187485536926
0.0311658258897369
0.0861480075900898
0.169722775026602
0.315027537372071
0.520581293099423
0.718350534548942
0.868838802240018
0.959846346091592
0.846642291850014
0.498736520572058
0.214532327486594
0.0361549497848
-0.0688665710186099
-0.114296292868059
-0.114296292868059
-0.134706345165927
-0.132271948905459
-0.13431758226502
-0.120433192946747
-0.102661174619353
-0.0693664090341282
-0.0397463784884745
-0.0138473642800971
-0.00199935206183786
0.000842319618640829
0.00408201045957355
0
0.00228629610774012
0.0121997500809957
0.00816402091914709
0.019354838709668
0.0159392789373829
0.0148285277919149
0.0255843013838114
0.0285740732170148
0.031961864210676
0.0285740732170148
0.0326560836765884
0.0369324755866122
0.0448002962003055
0.039079927801181
0.0403202665802737
0.046244272689406
0.0521682787985366
0.0489841255148825
0.054556393761279
0.0647660480399928
0.0564539269681217
0.0530661359744561
0.0550562317767398
0.0609802378858712
0.0653121673531767
0.0653121673531767
0.0641181098718054
0.0612301568936032
0.0661082056740899
0.0693941778127503
0.0693941778127503
0.0716341926227633
0.0693941778127525
0.0712361734623058
0.0771601795714369
0.0804461517100935
0.0857222196510445
0.0878141343083265
0.0967741935483887
0.0891562919424333
0.09319202110427
0.102300180497066
0.106132271948912
0.0982644513352274
0.103049937520247
0.11375017355487
0.11559216920443
0.124654047299487
0.127440181422694
0.133364187531825
0.139288193640957
0.145212199750088
0.15113620585922
0.159004026472908
0.167066228537056
0.172990234646188
0.182302031748975
0.194150043967241
0.2059980561855
0.213014300921009
0.218938307030138
0.229296061461575
0.236756606655266
0.240792335817109
0.262553802008619
0.273050400333239
0.280372101633744
0.285740732170148
0.291822094691553
0.300828435229341
0.306752441338473
0.315120099967619
0.326560836765884
0.326560836765884
0.334336094784114
0.334724857685031
0.334724857685031
0.337557273105961
0.331633266996831
0.328939695469086
0.314398111723087
0.29662609339568
0.278854075068289
0.257000046281319
0.239228027953926
0.217716480770145
0.199601980839561
0.178488452816241
0.155893923265625
0.135178414402764
0.108807330957569
0.0944138473642912
0.0725598185773206
0.0526403480353698
0.0369232193270761
0.0209931966492395
0.0127366131346355
0.00273059656592969
0
-0.00816402091914709
-0.0109594113018895
-0.0209654278705971
-0.0220946915351566
-0.0246494191697134
-0.0265747211551847
-0.0244920627574413
-0.0285740732170148
-0.0285740732170148
-0.0285740732170148
-0.0285740732170148
-0.0277687786365566
-0.0271393529874556
-0.0281667977970129
-0.0267413338270007
-0.0367473503957056
-0.0371176007775315
-0.0326560836765884
-0.035284861387517
-0.0326560836765884
-0.0285740732170148
-0.031471282454758
-0.0360808997084315
-0.0301568935993025
-0.0288332484842878
-0.0326560836765884
-0.0326560836765884
-0.030277224973389
-0.0326560836765884
-0.0367380941361619
-0.0367380941361619
-0.0326560836765884
-0.0326560836765884
-0.0326560836765884
-0.0326560836765884
-0.0326560836765884
-0.0326560836765884
-0.0326560836765884
-0.0342111352802344
-0.0333410468829593
-0.0244920627574413
-0.0274910908501857
-0.0367380941361619
-0.0341370852038752
-0.0285740732170148
-0.0307770629888434
-0.0326560836765884
-0.0303790438283856
-0.029009117415656
-0.0340630351275057
-0.0367380941361619
-0.0326560836765884
-0.0326560836765884
-0.0285740732170148
-0.0285740732170148
-0.0285740732170148
-0.0306289628361185
-0.0287591984079263
-0.0261489332160879
-0.0320729393252187
-0.0367380941361619
-0.0336372471884162
-0.0326560836765884
-0.0353589114638763
-0.0362752811588872
-0.0349608923034182
-0.0366733003193447
-0.0364696626093325
-0.0408201045957355
-0.0408201045957355
-0.0408201045957355
-0.0367380941361619
-0.0367380941361619
-0.0374508261211659
-0.0408201045957355
-0.041134817420282
-0.044902115055309
-0.044902115055309
-0.0408201045957355
-0.0480214745221449
-0.0476234553616923
-0.044902115055309
-0.044902115055309
-0.044902115055309
-0.0484194936826068
-0.044902115055309
-0.0530661359744561
-0.0510575276530828
-0.0489841255148825
-0.0432915258943938
-0.0442726894062117
-0.0461146850557711
-0.045929559864864
-0.0367380941361619
-0.0367380941361619
-0.0408201045957355
-0.0408201045957355
-0.044902115055309
-0.0430416068866646
-0.0408201045957355
-0.0408201045957355
-0.0408201045957355
-0.0408201045957355
-0.0437265700930255
-0.044902115055309
-0.0474105613921409
-0.0408201045957355
-0.0450409589484838
-0.0489841255148825
-0.046614523071225
-0.0418753181839275
-0.0421344934511933
-0.044902115055309
-0.0458184847503147
-0.0489841255148825
-0.044902115055309
-0.0472624612394124
-0.0489841255148825
-0.0509464525385282
-0.0530661359744561
-0.047419817651695
-0.0414958115425599
-0.044902115055309
-0.0479103994076003
-0.0489841255148825
-0.0489841255148825
-0.0530661359744561
-0.0508538899430807
-0.0489841255148825
-0.0530661359744561
-0.0567223584949344
-0.0571481464340296
-0.0538899430740086
-0.058166334984031
-0.0612301568936032
-0.0530661359744561
-0.0555283010135608
-0.0573702966631215
-0.0612301568936032
-0.0534178738371871
-0.0530661359744561
-0.0530661359744561
-0.0530661359744561
-0.0499560327671639
-0.0489841255148825
-0.0462720414680486
-0.0458462535289512
-0.0553802008608319
-0.0490581755912466
-0.0511500902485376
-0.0452260841394029
-0.0505021520803429
-0.0497061137594347
-0.0489841255148825
-0.0519461285694462
-0.0482621372703321
-0.044902115055309
-0.0445781459712161
-0.0408201045957355
-0.0408201045957355
-0.0466700606284986
-0.0489841255148825
-0.0530661359744561
-0.0530661359744561
-0.0509279400194419
-0.0543342435321944
-0.044902115055309
-0.044902115055309
-0.0369139630675271
-0.0448558337575741
-0.0489841255148825
-0.0506039709353437
-0.0461424538344107
-0.0473457675753158
-0.0500023140648911
-0.0457259221548542
-0.0516499282639893
-0.048558337575789
-0.047169898643958
-0.048956356736246
-0.044902115055309
-0.044902115055309
-0.0463738603230417
-0.0522978664321772
-0.0479103994076022
-0.0507335585689811
-0.0517147220808095
-0.044902115055309
-0.041375480168468
-0.0511038089508031
-0.0491044568889744
-0.0530661359744561
-0.0495024760494321
-0.0503077706298868
-0.0499004952098899
-0.0489841255148825
-0.0489841255148825
-0.0489841255148825
-0.0513537279585324
-0.052936548340818
-0.0470125422316904
-0.0487156939880622
-0.0505576896376161
-0.0530661359744561
-0.0530661359744561
-0.0530661359744561
-0.0530661359744561
-0.0530661359744561
-0.0452816216966759
-0.0534271300967254
-0.0530846484935471
-0.0548896191049198
-0.0571481464340296
-0.0612301568936032
-0.0579626972740361
-0.0561207016244823
-0.0501966955153468
-0.0489841255148825
-0.0440412829175794
-0.0369695006247938
-0.0428935067339284
-0.044902115055309
-0.037469338640265
-0.0291387050492921
-0.0204100522978677
-0.0235294117647063
-0.0253714074142601
-0.0367380941361547
-0.0453834405516765
-0.0559540889526519
-0.0612301568936032
-0.0593048549081387
-0.0533808487990041
-0.0500115703244426
-0.0415328365807412
-0.0367380941361619
-0.039709353450272
-0.0408201045957355
-0.0433933447493879
-0.044902115055309
-0.044902115055309
-0.044902115055309
-0.046679316888045
-0.0453649280325845
-0.0394964594807185
-0.0513444716989878
-0.0612301568936032
-0.0555838385708399
-0.0495672698662454
-0.05549127597538
-0.0528810107835449
-0.0489841255148825
-0.0489841255148825
-0.047355023834875
-0.0483732123848786
-0.0559170639144798
-0.0530661359744561
-0.0530661359744561
-0.0530661359744561
-0.0567131022353952
-0.0530661359744561
-0.0571111213958539
-0.0530661359744561
-0.0530661359744561
-0.0501041329198978
-0.044902115055309
-0.0459850974221304
-0.0489841255148825
-0.0489841255148825
-0.0464571666589578
-0.0451890591012208
-0.0553709446012836
-0.0691720275836594
-0.0648215855972773
-0.0316286388670338
0.00116628870270759
0.0426343314666563
0.0947285601887721
0.191549035034944
0.348359327995419
0.543851529596862
0.713740917295211
0.853917711852646
0.894219465913887
0.637543388716838
0.282380709955115
0.0671634192623876
-0.0626463646040464
-0.12309899569582
-0.145499143796001
-0.152978201508755
-0.171444439302089
-0.16737168510206
-0.170028231591632
-0.144906743185086
-0.123450733558592
-0.0905539871338049
-0.068292682926855
-0.0386726523811774
-0.0251307446660773
-0.0260933956588177
-0.0204100522978677
-0.0204100522978677
-0.0125607442032789
-0.0122460313787206
-0.00871939649188416
-0.0109594113018976
-0.00503540519276208
0
0
0.000490581755907573
0.00408201045957355
0.00816402091914709
0.00816402091914709
0.01194057481372
0.0122460313787206
0.0122460313787206
0.0122460313787206
0.0122460313787206
0.0170685426019319
0.0204100522978677
0.0241495811542622
0.0204100522978677
0.0204100522978677
0.0244920627574413
0.0244920627574413
0.025880501689266
0.0285740732170148
0.0295644929883818
0.0326560836765884
0.0367380941361619
0.0367380941361619
0.0406257231452848
0.0387744712361746
0.0446984773453023
0.0506224834544366
0.0565464895635712
0.0612301568936032
0.0643124913222606
0.0620724765122417
0.0653121673531767
0.0653121673531767
0.0698847595686606
0.0775581987318974
0.0775581987318974
0.0812884713287351
0.0857222196510445
0.0890544730874261
0.0938862405701915
0.0968204748461153
0.102050261489339
0.107122691720281
0.114296292868059
0.114296292868059
0.118276484472627
0.128282501041335
0.130624334706353
0.14555468135327
0.154218540287879
0.159198407923368
0.164770676169769
0.172536677928452
0.184384690146721
0.192150691905403
0.202008608321389
0.211764705882356
0.222020641458798
0.227944647567927
0.237950664136634
0.243874670245764
0.25388068681447
0.257166658953133
0.262442726894067
0.275734715601442
0.28165872171057
0.287582727819704
0.289822742629722
0.288628685148346
0.303762669505275
0.292858795760655
0.292710695607923
0.289822742629722
0.284842874994233
0.269412690331854
0.263136946359997
0.237497107418934
0.217040773823315
0.205192761605057
0.185375109918109
0.158892951358385
0.140176794557339
0.119664923404478
0.088304716064256
0.0752163650668823
0.0650067107881879
0.0452908779562266
0.0291664738279385
0.0147822464941945
0.00547044939141123
-0.00229555236728382
-0.00816402091914709
-0.0137455454250872
-0.0255935576433583
-0.0330078215393139
-0.0367380941361619
-0.0407738232980025
-0.044902115055309
-0.0412644050539246
-0.0395334845189043
-0.044902115055309
-0.041819780626648
-0.0477437867357785
-0.044902115055309
-0.044902115055309
-0.044902115055309
-0.0469477484148672
-0.0489841255148825
-0.0489841255148825
-0.0524737353635379
-0.0530661359744561
-0.0530661359744561
-0.0489841255148825
-0.0489841255148825
-0.0494376822326089
-0.0507705836071677
-0.0449576526125776
-0.0489841255148825
-0.0452445966584975
-0.0504836395612545
-0.0530661359744561
-0.0530661359744561
-0.0530661359744561
-0.0571481464340296
-0.0546026750590165
-0.044902115055309
-0.0491970194844194
-0.0530661359744561
-0.0489841255148825
-0.0489841255148825
-0.0489841255148825
-0.0489841255148825
-0.0499375202480684
-0.0474753552089605
-0.0541768871199104
-0.058832785671314
-0.0568334336094907
-0.0489841255148825
-0.0489841255148825
-0.0473827926135097
-0.0414587865043803
-0.0432267320775656
-0.0459388161244109
-0.0408201045957355
-0.0434673948257492
-0.0481695746748833
-0.0408201045957355
-0.044902115055309
-0.041199611237103
-0.0367380941361619
-0.0408201045957355
-0.0408201045957355
-0.0418753181839221
-0.0391076965798221
-0.0333132781043173
-0.0392372842134528
-0.0408201045957355
-0.0408201045957355
-0.0408201045957355
-0.0431989632989345
-0.0372749571898061
-0.0367380941361619
-0.0335909658906896
-0.0417272180311945
-0.0421530059702946
-0.0372471884111624
-0.0384690146711781
-0.0368491692507046
-0.0408201045957355
-0.0370250381820778
-0.0326560836765884
-0.0394501781829906
-0.0489841255148825
-0.0489841255148825
-0.0482251122321528
-0.0423011061230219
-0.0534271300967281
-0.0549451566621966
-0.0490211505530682
-0.0426250752071108
-0.0485490813162398
-0.0434951636043923
-0.0408201045957355
-0.0398111723052756
-0.0367380941361619
-0.0320451705465862
-0.0359327995556888
-0.044902115055309
-0.044902115055309
-0.0410052297866496
-0.0424769750543794
-0.0484009811635097
-0.044902115055309
-0.044902115055309
-0.0457629471930395
-0.0489841255148825
-0.044902115055309
-0.0425973064284783
-0.0368028879529779
-0.0408201045957355
-0.0445688897116669
-0.0545749062803745
-0.0537973804785552
-0.0541768871199168
-0.0541953996390131
-0.0489841255148825
-0.0489841255148825
-0.0489841255148825
-0.0511408339889851
-0.0450687277271358
-0.0466608043689545
-0.0489841255148825
-0.047623455361695
-0.044902115055309
-0.0468274170407735
-0.0502614893321668
-0.0454667468875826
-0.0489841255148825
-0.0491507381866993
-0.0510575276530782
-0.0451335215439504
-0.044902115055309
-0.044902115055309
-0.0465589855139577
-0.0408201045957355
-0.0416346554357392
-0.0475586615448692
-0.0412366362752815
-0.044902115055309
-0.0449206275743964
-0.0508446336835287
-0.0456611283380496
-0.038200583144351
-0.0375156199379899
-0.0315916138288553
-0.0372934697088845
-0.0483176748276081
-0.042393668718477
-0.0410885361225531
-0.044902115055309
-0.0488545378812424
-0.0506965335308026
-0.0495117323089804
-0.0489841255148825
-0.0458277410098638
-0.044902115055309
-0.044902115055309
-0.0413384551302823
-0.0472624612394137
-0.0530661359744561
-0.0530661359744561
-0.0530661359744561
-0.0530661359744561
-0.0530661359744561
-0.0478178368121507
-0.0479103994075976
-0.0571481464340296
-0.0545378812421961
-0.0489841255148825
-0.0511963715462581
-0.0530661359744561
-0.044902115055309
-0.044902115055309
-0.0420696996343809
-0.0367380941361619
-0.0418382931457418
-0.044902115055309
-0.0401999352061878
-0.0392002591752672
-0.0408201045957355
-0.0408201045957355
-0.0447262461239403
-0.0473179987966922
-0.044902115055309
-0.0423658999398423
-0.0367380941361619
-0.0376081825334373
-0.0381080205489038
-0.0367380941361619
-0.0367380941361619
-0.0326560836765884
-0.0364881751284267
-0.0445781459712128
-0.044902115055309
-0.044902115055309
-0.0478641181098754
-0.044902115055309
-0.044902115055309
-0.044902115055309
-0.0445781459712182
-0.0364881751284376
-0.036664044059795
-0.0349701485629709
-0.0290461424538395
-0.0353959365020563
-0.0408201045957355
-0.0357661868838859
-0.0354699865784209
-0.0402462165039155
-0.0343222103947871
-0.0285740732170148
-0.0305919377979346
-0.0326560836765884
-0.0326560836765884
-0.0326560836765884
-0.0297958994770228
-0.0326560836765884
-0.0285740732170148
-0.0312398759661223
-0.0281482852779232
-0.0290276299347404
-0.0284907668811132
-0.0144582774101016
-0.00853427130097004
-0.00261026519183894
-0.00331374091729196
-0.0133197574859982
-0.0134123200814599
-0.0190308696255765
-0.0376914888693396
-0.0367380941361619
-0.0346184107002405
-0.0247327255056305
-0.0186883880224034
-0.0234553616883366
-0.021733697412875
-0.0244920627574413
-0.0294996991715659
-0.0326560836765884
-0.0377933077243485
-0.0425325126116579
-0.0367380941361619
-0.0367380941361619
-0.0329245152034105
-0.030147637339751
-0.0360716434488811
-0.038469014671179
-0.0326560836765884
-0.0464571666589532
-0.0556856574258325
-0.0486046188735184
-0.0404591104734716
-0.0408015920766426
-0.044902115055309
-0.0522330726153531
-0.0516406720044481
-0.0522515851344469
-0.0561207016244787
-0.0501966955153495
-0.0483546998657884
-0.0424306937566573
-0.0446707085666726
-0.0387467024575417
-0.0367380941361619
-0.0424954875734722
-0.044902115055309
-0.0464293978803248
-0.0408201045957355
-0.0399407599389127
-0.0367380941361619
-0.0417827555884669
-0.0513074466608021
-0.056981533762214
-0.0335817096311811
0.00250844633682463
0.0311010320729278
0.0826769102605338
0.163197112047002
0.293599296524214
0.491673994538755
0.686925533391872
0.831563845050238
0.927690100430463
0.838496783449887
0.493951034387165
0.191808210302331
0.0145600962651404
-0.0867774332391975
-0.133567825241824
-0.148516684407832
-0.167945573193882
-0.171444439302089
-0.174971074188937
-0.155171935021088
-0.135345027074574
-0.0988105706484453
-0.0677558198732071
-0.0440597954366737
-0.0265099273383701
-0.015494978479199
-0.0122460313787206
-0.00816402091914709
-0.00588698107095112
-0.00812699588096588
-0.000323969084095642
0.000360994122277425
0.00148100152728103
0.00740500763641194
0.00816402091914709
0.00816402091914709
0.00816402091914709
0.0106909797750691
0.0122460313787206
0.0143749710741859
0.0123571064932688
0.00989494145415367
0.0158189475632883
0.0217429536724215
0.0276669597815512
0.0285740732170148
0.0257971953533626
0.0244920627574413
0.0244920627574413
0.0287129171101968
0.0346369232193279
0.0367380941361619
0.0383209145184436
0.0476697366594139
0.0437173138334835
0.0438469014671169
0.0441153329939405
0.0408201045957355
0.0452908779562196
0.0489841255148825
0.0489841255148825
0.0508168649048899
0.0567408710140246
0.05571342620448
0.0563428518535677
0.0622668579626996
0.0710695607904828
0.0646734854445373
0.0686721895681891
0.0777988614800807
0.0837228675892076
0.0857222196510445
0.0914888693479012
0.0938862405701915
0.0979682510297651
0.0979682510297651
0.107020872865281
0.115675475540335
0.127032906002691
0.135289489517287
0.134798907761381
0.142657472115519
0.150728930439217
0.160734947007919
0.166658953117054
0.176664969685755
0.182588975794891
0.19667700282317
0.200018512519104
0.205127967788229
0.218531031610136
0.23250798352387
0.232674596195692
0.243559957421217
0.254473087425388
0.257166658953133
0.26830193918639
0.280409126671926
0.286925533391974
0.293904753089295
0.290017124080177
0.295941130189305
0.297986763548869
0.302068774008442
0.302068774008442
0.303309112787536
0.30306845003936
0.292220113852024
0.277687786365557
0.268524089415487
0.256676077197229
0.236571481464355
0.21476373397513
0.196991715647723
0.17105567640118
0.149951404637403
0.123265608367666
0.105493590040281
0.0822511223214774
0.0602397371222398
0.0480955245985134
0.0303235062711297
0.0165316795482976
0.00642384412459407
0.000499838015459446
-0.00542416809366793
-0.0113481742028035
-0.0172721803119308
-0.0231961864210664
-0.0372842134493462
-0.0384319896329954
-0.0329522839820447
-0.0448002962003
-0.0451520340630383
-0.0464941916971327
-0.0489841255148825
-0.044902115055309
-0.0479381681862369
-0.044902115055309
-0.044902115055309
-0.0412181237561925
-0.044902115055309
-0.044902115055309
-0.0430601194057552
-0.0445040958948504
-0.0489841255148825
-0.0489841255148825
-0.0530661359744561
-0.0501781829962566
-0.0489841255148825
-0.0464941916971408
-0.0408201045957355
-0.0429120192530185
-0.0488360253621541
-0.044902115055309
-0.044902115055309
-0.0436062387189413
-0.0408201045957355
-0.0408201045957355
-0.0380802517702654
-0.0367380941361619
-0.0367380941361619
-0.0409219234507361
-0.0468459295598646
-0.0489841255148825
-0.0474383301707856
-0.0415143240616501
-0.0408201045957355
-0.0408201045957355
-0.038237608182523
-0.044902115055309
-0.0408201045957355
-0.0408201045957355
-0.0367843754338896
-0.0367380941361619
-0.0403758041375501
-0.0394224094043661
-0.0399777849770914
-0.0479844494839718
-0.0420604433748372
-0.0443004581848507
-0.0383764520757214
-0.0408201045957355
-0.0408201045957355
-0.0408201045957355
-0.044902115055309
-0.0483917249039687
-0.0489841255148825
-0.0489841255148825
-0.0440505391771276
-0.0462072476512222
-0.0530661359744561
-0.0530661359744561
-0.0490396630721485
-0.0511686027676291
-0.0452445966584936
-0.0489841255148825
-0.0489841255148825
-0.0489841255148825
-0.0489841255148825
-0.0482806497894236
-0.044902115055309
-0.0411255611607383
-0.0470495672698662
-0.0489841255148825
-0.0507335585689811
-0.0530661359744561
-0.0489841255148825
-0.0521775350580854
-0.0530661359744561
-0.0530661359744561
-0.0500948766603351
-0.0595455176563152
-0.0530661359744561
-0.0530661359744561
-0.0492247882630731
-0.0530661359744561
-0.0530661359744561
-0.0489841255148825
-0.0520294349053569
-0.0555375572731087
-0.0489841255148825
-0.0526588605544536
-0.0489841255148825
-0.0571481464340296
-0.0552968945249294
-0.0530661359744561
-0.0571481464340296
-0.0571481464340296
-0.0571481464340296
-0.0571481464340296
-0.0530661359744561
-0.0530661359744561
-0.0568889711667603
-0.0530661359744561
-0.0530661359744561
-0.0489841255148825
-0.0489841255148825
-0.0489841255148825
-0.0489841255148825
-0.044902115055309
-0.044902115055309
-0.044902115055309
-0.044902115055309
-0.0489841255148825
-0.0489841255148825
-0.0489841255148825
-0.0530661359744561
-0.0496690887212517
-0.0460591474984937
-0.0489841255148825
-0.0489841255148825
-0.0463831165825936
-0.0452631091775783
-0.0489841255148825
-0.0449391400934983
-0.0408201045957355
-0.0481140371175917
-0.0557411949831147
-0.0530661359744561
-0.0500393391030873
-0.0408201045957355
-0.0524552228444566
-0.0489841255148825
-0.0489841255148825
-0.0489841255148825
-0.0489841255148825
-0.0530661359744561
-0.0495672698662499
-0.044902115055309
-0.044902115055309
-0.044902115055309
-0.044902115055309
-0.044902115055309
-0.0472069236821411
-0.0448373212384967
-0.0389133151293602
-0.0367380941361619
-0.0367380941361619
-0.0367380941361619
-0.0367380941361619
-0.0367380941361619
-0.0360253621511626
-0.0326560836765884
-0.0408201045957355
-0.0386633961216318
-0.0407367982598266
-0.0367380941361619
-0.0439394640625777
-0.044902115055309
-0.0416994492525598
-0.0408201045957355
-0.0408201045957355
-0.0413847364280082
-0.042495487573477
-0.0408201045957355
-0.0408201045957355
-0.0369695006248061
-0.0310454945156718
-0.0285740732170148
-0.0314435136761287
-0.0316286388670302
-0.0334706345165894
-0.0367380941361619
-0.0330726153561308
-0.0389966214652672
-0.0408201045957355
-0.0408201045957355
-0.0408201045957355
-0.0367380941361619
-0.0367380941361619
-0.0326560836765884
-0.0326560836765884
-0.0319896329893157
-0.0310825195538485
-0.0370065256629759
-0.0365992502429817
-0.0287036608506574
-0.0343684916925066
-0.0331836904706889
-0.0298884620724744
-0.0326560836765884
-0.0285740732170148
-0.0313324385615738
-0.0285740732170148
-0.0285740732170148
-0.0285740732170148
-0.0285740732170148
-0.0285740732170148
-0.027009765353825
-0.0278983662701921
-0.0285740732170148
-0.0285740732170148
-0.0278058036747405
-0.0271023279492767
-0.0282038228351991
-0.0267043087888199
-0.0326283148979455
-0.0285740732170148
-0.0249178506965403
-0.0232424677187904
-0.0285740732170148
-0.0285740732170148
-0.0285740732170148
-0.0285740732170148
-0.0310362382561174
-0.0365159439070747
-0.0285277919192917
-0.0244920627574413
-0.0244920627574413
-0.0280001851251939
-0.0285740732170148
-0.0285740732170148
-0.0285740732170148
-0.0285740732170148
-0.0285740732170148
-0.0308881381033933
-0.0326560836765884
-0.0326560836765884
-0.0326560836765884
-0.0326560836765884
-0.0326560836765884
-0.0304160688665795
-0.0274540658120015
-0.0312121071874968
-0.0219280788633371
-0.0282501041329259
-0.0266580274910875
-0.0285740732170148
-0.0110242051187199
-0.00408201045957355
0
0
-0.00602582496412547
-0.0150599342805577
-0.0250659508492586
-0.0285740732170148
-0.0285740732170148
-0.0265562086360932
-0.0244920627574413
-0.0187902068774048
-0.0163280418382942
-0.0204100522978677
-0.017346230388306
-0.0163280418382942
-0.0163280418382942
-0.0163280418382942
-0.0163280418382942
-0.0204100522978677
-0.0166705234414815
-0.00853427130097301
-0.0163280418382942
-0.0163280418382942
-0.0163280418382942
-0.0163280418382942
-0.0251677697042603
-0.0310917758133968
-0.028018697644294
-0.0204100522978677
-0.0243717313833451
-0.0244920627574413
-0.0209284028324218
-0.0217336974128738
-0.0244920627574413
-0.0163280418382942
-0.0190956634423996
-0.0198824455037771
-0.0163280418382942
-0.0242328874901737
-0.0163280418382942
-0.0239551997037916
-0.0204100522978677
-0.0204100522978677
-0.0204100522978677
-0.0204100522978677
-0.0188550006942262
-0.0148655528301025
-0.0256305826815277
-0.0411810987180084
-0.0408386171148319
-0.0135511639746429
0.0183273939001048
0.0603878372749447
0.120849724626227
0.208321377331366
0.349757023186848
0.55803211922055
0.754977553570528
0.90243902439022
0.985967510529033
0.886379414078934
0.540352663488949
0.244707733605088
0.0456241032999146
-0.0681630952931292
-0.111093627065306
-0.119738973480826
-0.139269681121864
-0.140547044939149
-0.134456426158211
-0.116684407830807
-0.102679687138441
-0.066867218956831
-0.0321377331420596
-0.0129402508446416
0.00186050816863977
0.00889526542324113
0.0122460313787206
0.0166612671819296
0.0182348313046751
0.0203452584810445
0.0262692645901778
0.0249548757347231
0.0271948905447362
0.0277132410792761
0.0367380941361619
0.0395612532975472
0.0396538158930079
0.035081223677515
0.044902115055309
0.044902115055309
0.044902115055309
0.0473550238348732
0.044902115055309
0.0502152080344333
0.0499930578053479
0.0498171888739765
0.0530661359744561
0.0575831906326732
0.0589531170454108
0.057222196510401
0.0653121673531767
0.0615911510158767
0.0612301568936032
0.0579071597167625
0.0623131392604254
0.0682371453695599
0.0693941778127503
0.0719211366686741
0.0696811218586566
0.0734761882723238
0.0734761882723238
0.0752071088073308
0.0775581987318974
0.0816402091914709
0.0816402091914709
0.0816402091914709
0.0844170870551227
0.0821770722451016
0.0881010783542383
0.0940250844633629
0.0999490905725029
0.102050261489339
0.103633081871618
0.112981904012597
0.118378303327633
0.121405100199018
0.128115888369512
0.137335122876853
0.139177118526408
0.14510112463554
0.151025130744673
0.158781876243812
0.170629888462077
0.178395890220761
0.186967186559919
0.196973203128633
0.202897209237755
0.216346554357398
0.221307909473789
0.232915258943879
0.238839265053003
0.248687925209443
0.256453926968123
0.261248669412707
0.271985930485497
0.277576711251001
0.287517934002879
0.296635349655223
0.306641366223925
0.312565372333056
0.318489378442188
0.32247882630631
0.326255380200879
0.32247882630631
0.32247882630631
0.325422316841792
0.316517795159004
0.312833803859894
0.303568288054819
0.293219789882949
0.277002823159192
0.261359744527275
0.237774795205288
0.217707224510618
0.193076317859988
0.169917156477075
0.151154718378326
0.12745869394179
0.108437080575753
0.0882306659878917
0.0730874253714214
0.0592030360531442
0.0414310177257501
0.0310177257370351
0.0181330124496826
0.00568334336096279
0
-0.000842319618646131
-0.00676632572777205
-0.0122460313787206
-0.0145323274864594
-0.0204100522978677
-0.0185217753505851
-0.0163280418382942
-0.0219003100846925
-0.0244920627574413
-0.0204100522978677
-0.0262785208497269
-0.0326560836765884
-0.0351922987920586
-0.0367380941361619
-0.0367380941361619
-0.0367380941361619
-0.0367380941361619
-0.0367380941361619
-0.0367380941361619
-0.0367380941361619
-0.0367380941361619
-0.0367380941361619
-0.0413662239089126
-0.0425140000925687
-0.0408201045957355
-0.0408201045957355
-0.033155921692066
-0.0424121812375599
-0.0414680427639322
-0.0338501411579567
-0.0367380941361619
-0.0367380941361619
-0.0341000601656916
-0.0330541028370427
-0.0367380941361619
-0.0326560836765902
-0.0385800897857172
-0.0371361132966235
-0.0381820706252579
-0.0441060767343913
-0.039774147267097
-0.0396260471143617
-0.044902115055309
-0.044902115055309
-0.0489841255148825
-0.0468922108575986
-0.044902115055309
-0.0408201045957355
-0.0478918868885173
-0.0504743833017163
-0.044902115055309
-0.0440042578793952
-0.0408201045957355
-0.0408201045957355
-0.0384782709307207
-0.0326560836765884
-0.0345998981811456
-0.0367380941361619
-0.0301198685611109
-0.0360438746702458
-0.0367380941361619
-0.0367380941361619
-0.0367380941361619
-0.0367380941361619
-0.0370898319988836
-0.0408201045957355
-0.0448558337575733
-0.0431064007034815
-0.0371823945943574
-0.0408201045957355
-0.0375804137548135
-0.0367380941361619
-0.039579765816626
-0.041421761466191
-0.044902115055309
-0.0489841255148825
-0.0489841255148825
-0.0450964965057675
-0.0408201045957355
-0.0408201045957355
-0.039570509557095
-0.0336465034479609
-0.037589670014343
-0.0435136761234786
-0.044902115055309
-0.042606562688022
-0.040875642153014
-0.0467996482621363
-0.0452445966584896
-0.044902115055309
-0.044902115055309
-0.0478826306289675
-0.044902115055309
-0.0489841255148825
-0.0464386541398658
-0.0370435507011629
-0.0429675568102946
-0.044902115055309
-0.0489841255148825
-0.0453926968112239
-0.044902115055309
-0.0480955245985116
-0.0480307307817014
-0.0476975054380536
-0.0454574906280326
-0.0489841255148825
-0.0450594714675751
-0.0489841255148825
-0.0451427778035014
-0.0424214374971081
-0.0483454436062322
-0.0436988013143924
-0.0438654139862008
-0.044902115055309
-0.0422548248252998
-0.0412273800157362
-0.044902115055309
-0.0489933817744253
-0.0512148840653562
-0.0489841255148825
-0.0504373582635249
-0.0530661359744561
-0.052010922386273
-0.0489841255148825
-0.048326931087157
-0.0474013051325973
-0.0609709816263352
-0.0487434627667083
-0.0447632711621163
-0.044902115055309
-0.044902115055309
-0.044902115055309
-0.048049243300787
-0.0480770120794242
-0.044902115055309
-0.044902115055309
-0.0425510251307478
-0.0408201045957355
-0.0388670338316336
-0.0367380941361619
-0.0408201045957355
-0.0408201045957355
-0.0355810616929788
-0.0356551117693343
-0.0400610913130098
-0.0393391030684517
-0.0445411209330409
-0.0408201045957355
-0.0408201045957355
-0.044902115055309
-0.0412551487943827
-0.0394131531448176
-0.0399870412366285
-0.044902115055309
-0.0420511871152985
-0.0402091914657317
-0.0342851853566076
-0.03716388207525
-0.0428472254362126
-0.0408201045957355
-0.0408201045957355
-0.0408201045957355
-0.0408201045957355
-0.0408201045957355
-0.0408201045957355
-0.0408201045957355
-0.0367380941361619
-0.0390429027629935
-0.0407553107789266
-0.0386448836025374
-0.0408201045957355
-0.0393113342898161
-0.0400888600916419
-0.0397093534502758
-0.0367380941361619
-0.0401073726107319
-0.0341833665015969
-0.0323413708520428
-0.0307307816911186
-0.0326560836765884
-0.0326560836765884
-0.0362567686397953
-0.0394594344425485
-0.0399407599389091
-0.0408201045957355
-0.0380154579534444
-0.0373027259684338
-0.0456333595594017
-0.0486509001712611
-0.0428287129171125
-0.044902115055309
-0.044902115055309
-0.044902115055309
-0.0436895450548478
-0.0438746702457472
-0.044902115055309
-0.0422455685657534
-0.037154625815709
-0.0408201045957355
-0.0408201045957355
-0.0408201045957355
-0.0408201045957355
-0.0352756051279749
-0.0359605683343371
-0.0408201045957355
-0.0379136390984429
-0.0374045448234339
-0.0358032119220697
-0.0372749571897872
-0.0406812607025555
-0.0367380941361619
-0.0350256861202413
-0.0326560836765884
-0.0435877261998463
-0.0376637200907222
-0.0367380941361619
-0.0367380941361619
-0.0367380941361619
-0.0367380941361619
-0.0285740732170148
-0.0285740732170148
-0.0285740732170148
-0.0310917758133994
-0.0285740732170148
-0.0285740732170148
-0.0285740732170148
-0.0293423427592887
-0.030045818484754
-0.0244920627574413
-0.0267043087888196
-0.0326283148979437
-0.0285740732170148
-0.0285740732170148
-0.0299902809274773
-0.0293978803165735
-0.0295922617670211
-0.0355162678761471
-0.0326560836765884
-0.0301939186374894
-0.0324339334474961
-0.026509927338372
-0.0205859212292322
-0.0204100522978677
-0.0169019299301198
-0.0204100522978677
-0.0204100522978677
-0.0154579534410184
-0.00953394733188469
0.000472069236814636
0.00408201045957355
-0.000148100152714217
-0.010080066645069
-0.0160040727541931
-0.0260100893229053
-0.0285740732170148
-0.0285740732170148
-0.0285740732170148
-0.0271300967279149
-0.0204100522978677
-0.0207340213819597
-0.0244920627574413
-0.0204841023742318
-0.0204100522978677
-0.0240199935206192
-0.0204100522978677
-0.0204100522978677
-0.0213819595501436
-0.0244920627574413
-0.0280001851251983
-0.0220761790160617
-0.0289258110797328
-0.0347202295552385
-0.0287962234461162
-0.0383579395566274
-0.0442819456657515
-0.0436802887952996
-0.0408201045957355
-0.0367380941361619
-0.0367380941361619
-0.0408201045957355
-0.0408201045957355
-0.040792335817098
-0.0367380941361619
-0.0367380941361619
-0.0367380941361619
-0.0334243532188695
-0.0326560836765884
-0.0297403619197553
-0.0292497801638314
-0.0351737862729695
-0.0329337714629475
-0.0367380941361619
-0.0367380941361619
-0.0367380941361619
-0.0367380941361619
-0.0393853843661802
-0.0480677558198705
-0.0580737723885808
-0.0584625352895014
-0.0294904429120178
-0.00105521358821013
0.0339519600129782
0.10107835423705
0.203082334428656
0.37253667792844
0.598556023510954
0.786911649002608
0.934789651501883
0.98376452075733
0.772916184569812
0.427102327949549
0.170889063729346
-0.0117276808439689
-0.0998750404961388
-0.126125792567224
-0.136326190586396
-0.150219836164209
-0.145924931735095
-0.134262044707764
-0.120572036839922
-0.0953857546166026
-0.0600731244504096
-0.0304530939047982
-0.00866385893460652
-0.000731244504110863
0.00408201045957355
0.00535937427684877
0.00816402091914709
0.00728467626232979
0.00680335076595108
0.00864534641550828
0.0145693525246406
0.0162447355023924
0.0122460313787206
0.0197806266487584
0.0204100522978677
0.0237793307724305
0.0256213264219937
0.0285740732170148
0.0293053177211112
0.0352293238302353
0.0326560836765884
0.0348313046697774
0.0407553107789175
0.0390429027629963
0.0403572916184598
0.0408201045957355
0.0440412829175755
0.0439209515434885
0.0408201045957355
0.045485259406672
0.0489841255148825
0.0452723654371163
0.0550932568149241
0.0532790299440092
0.0489841255148825
0.0524552228444469
0.0571481464340296
0.0602212246031342
0.0612301568936032
0.0639052159022516
0.0689591336141085
0.0653121673531767
0.0735132133105059
0.075679178044163
0.077197204609622
0.0775581987318974
0.0775581987318974
0.0827231915582895
0.0857222196510445
0.0864071828574069
0.09233118896654
0.0900911741565225
0.0960151802656542
0.101939186374785
0.103781182024352
0.11327810431804
0.117045401953079
0.117471189892165
0.127477206460878
0.133401212570003
0.139325218679142
0.147628083491455
0.155255241356978
0.163160087008837
0.175008099227116
0.186856111445366
0.198704123663635
0.206470125422326
0.21529134076921
0.226084139399279
0.23793215161755
0.245698153376224
0.255315407044031
0.261239413153155
0.26899615865231
0.280844170870559
0.28309344194013
0.295570879807471
0.299023464617968
0.302068774008442
0.303346137825728
0.312713472485781
0.318396815846737
0.318396815846737
0.318396815846737
0.30686351645303
0.298542139121602
0.287249502476082
0.275401490257808
0.265858286666399
0.242162262229857
0.223038830008828
0.202934234275966
0.175156199379864
0.15146017494334
0.131540704401373
0.111223214698964
0.0926181330124827
0.0659786180404482
0.0482065997130758
0.0352570926088727
0.0234090803906281
0.00747905771277738
-0.00218447725273722
-0.00810848336187563
-0.0158189475632792
-0.0204100522978677
-0.0217984912296891
-0.0244920627574413
-0.0295644929883836
-0.0354884990975187
-0.0326560836765884
-0.0350904799370608
-0.0367380941361619
-0.0387744712361782
-0.0408201045957355
-0.0408201045957355
-0.0408201045957355
-0.044902115055309
-0.0418197806266562
-0.0416624242143798
-0.044902115055309
-0.0444578145971226
-0.0408201045957355
-0.0408201045957355
-0.0389318276484546
-0.0404683667330047
-0.0408201045957355
-0.0441523580321208
-0.0408201045957355
-0.0437543388716632
-0.0435136761234949
-0.0392743092516303
-0.044902115055309
-0.044902115055309
-0.0528624982644458
-0.0554079696394799
-0.0530661359744561
-0.0530661359744561
-0.0562502892581086
-0.0602860184199573
-0.0571481464340296
-0.0566020271208435
-0.0506780210117176
-0.0530661359744561
-0.0530661359744561
-0.0492340445226113
-0.0546582126162787
-0.0571481464340296
-0.0559540889526631
-0.0500300828435264
-0.0497801638357911
-0.0530661359744561
-0.0493821446753364
-0.0530661359744561
-0.0530661359744561
-0.0571481464340296
-0.0571481464340296
-0.0585921229231331
-0.0612301568936032
-0.0612301568936032
-0.058342203915407
-0.0618780950617908
-0.0653121673531767
-0.0691442588050187
-0.0653121673531767
-0.0653121673531767
-0.0693941778127503
-0.0693941778127503
-0.0721803119359558
-0.0693941778127503
-0.0621280140695133
-0.0680520201786472
-0.0653121673531767
-0.0676540010181896
-0.0692923589577542
-0.0653121673531767
-0.0653121673531767
-0.0668579626972709
-0.0660063868190947
-0.0653121673531767
-0.0683019391863726
-0.0653121673531767
-0.0653121673531767
-0.0612301568936032
-0.0612301568936032
-0.0612301568936032
-0.0594344425417775
-0.0607858564354188
-0.0585458416253992
-0.0612301568936032
-0.0602304808626933
-0.059989818114502
-0.0606285000231494
-0.0571481464340296
-0.0571481464340296
-0.0571481464340296
-0.0571481464340296
-0.0571481464340296
-0.0571481464340296
-0.0571481464340296
-0.0571481464340296
-0.0530661359744561
-0.0557597075021974
-0.0603230434581376
-0.0484750312398857
-0.0572592215485794
-0.0596195677327004
-0.0530661359744561
-0.0556486323876603
-0.0497246262785225
-0.0571481464340296
-0.0542046558985572
-0.0523626602490008
-0.0489841255148825
-0.0530661359744561
-0.0530661359744561
-0.0490766881103431
-0.0513167029203581
-0.0489841255148825
-0.0476327116212439
-0.048095524598508
-0.0561947517008503
-0.0474753552089704
-0.0530661359744561
-0.0530661359744561
-0.0530661359744561
-0.0510667839126291
-0.0489841255148825
-0.0489841255148825
-0.0489841255148825
-0.054269449715369
-0.0571481464340296
-0.0571481464340296
-0.0571481464340296
-0.0571481464340296
-0.0593974175035853
-0.0571481464340296
-0.0571481464340296
-0.0571481464340296
-0.0597769241449533
-0.0571481464340296
-0.0612301568936032
-0.0612301568936032
-0.0605729624658673
-0.0596473365113161
-0.0612301568936032
-0.0612301568936032
-0.0572869903272101
-0.0612301568936032
-0.0612301568936032
-0.0612301568936032
-0.058083028648127
-0.0621372703290597
-0.0625630582681598
-0.0617392511686036
-0.0653121673531767
-0.0652010922386342
-0.0592770861295032
-0.0609432128476878
-0.0637571157495342
-0.0612301568936032
-0.0664691997963581
-0.0693941778127503
-0.0653121673531767
-0.0627111584208887
-0.0615911510158677
-0.0631091775813485
-0.0612301568936032
-0.0571481464340296
-0.0571481464340296
-0.0612301568936032
-0.0612301568936032
-0.0612301568936032
-0.0612301568936032
-0.0612301568936032
-0.0612301568936032
-0.0571481464340296
-0.0571481464340296
-0.0610450317026893
-0.0636552968945342
-0.0612301568936032
-0.0599713055954099
-0.0571481464340296
-0.0644513352154396
-0.0612301568936032
-0.0571481464340296
-0.0571481464340296
-0.0571481464340296
-0.0590549359004033
-0.0574813717776656
-0.0612301568936032
-0.057879390938125
-0.062340908039061
-0.0653121673531767
-0.0619428888786049
-0.0653121673531767
-0.0653121673531767
-0.0631554588790747
-0.0652288610172644
-0.0635534780395322
-0.0612301568936032
-0.0571481464340296
-0.060350812236775
-0.0602675059008756
-0.0571481464340296
-0.0571481464340296
-0.0547415189521983
-0.0530661359744561
-0.0570833526172065
-0.0612301568936032
-0.0587587355949451
-0.0577775720831231
-0.0530661359744561
-0.0561207016244769
-0.0571481464340296
-0.0571481464340296
-0.0571481464340296
-0.0571481464340296
-0.0571481464340296
-0.0552876382653833
-0.0530661359744561
-0.0516036469662709
-0.0489841255148825
-0.0530661359744561
-0.0472532049798745
-0.0455685657425895
-0.0489841255148825
-0.044902115055309
-0.0470125422316839
-0.0489841255148825
-0.0530661359744561
-0.0459573286434957
-0.0502985143703434
-0.0467533669644108
-0.0489841255148825
-0.0489841255148825
-0.044902115055309
-0.0472624612394148
-0.0529458046003672
-0.050946452538529
-0.0492618133012515
-0.0480307307816833
-0.0564724394872045
-0.0518998472717265
-0.0489841255148825
-0.044902115055309
-0.0422918498634764
-0.0408201045957355
-0.038607858564359
-0.0367380941361619
-0.0385523210070787
-0.0444763271162046
-0.0463183227657696
-0.0489841255148825
-0.0428657379553
-0.0367380941361619
-0.0373582635257085
-0.0457444346739472
-0.0573702966631201
-0.0591660110149548
-0.0571481464340296
-0.0612301568936032
-0.057722034525855
-0.0558800388762981
-0.049956032767164
-0.0498542139121529
-0.0530661359744561
-0.0571481464340296
-0.0571481464340296
-0.0570740963576601
-0.0530661359744561
-0.0568241773499401
-0.0612301568936032
-0.0612301568936032
-0.0641921599481707
-0.0612301568936032
-0.066034155597723
-0.0693941778127503
-0.0693941778127503
-0.0693941778127503
-0.0734021381959561
-0.0717082426991347
-0.0730041190355
-0.0680242514000187
-0.0653121673531767
-0.0693941778127503
-0.0693941778127503
-0.0653121673531767
-0.0653121673531767
-0.0612301568936032
-0.063248021474523
-0.0614523071227063
-0.0596103114731395
-0.0571481464340296
-0.0583699726940372
-0.0581663349840468
-0.0563243393344818
-0.0557319387235658
-0.0661637432313602
-0.0757439718609742
-0.0691997963623136
-0.0277317535983983
-0.00111075114546689
0.0325172397833626
0.110936270653003
0.229009117415506
0.421030221687335
0.649576526125585
0.823149905123347
0.961216272504284
0.939093812190648
0.683991299115849
0.355218216318941
0.120710880732962
-0.0306659878742715
-0.109214606377571
-0.128393576155879
-0.148544453186476
-0.149979173416035
-0.142870366085074
-0.138529180358233
-0.124709584856775
-0.0993104086638779
-0.0671819317813822
-0.0400703475725553
-0.0221409728328928
-0.0102929606146203
-0.0114685055769039
-0.00554449946776627
-0.00408201045957355
-0.00186050816865246
0
0
0.00366547878001553
0.00408201045957355
0.00734947007913115
0.00816402091914709
0.00816402091914709
0.0128754570278136
0.0163280418382942
0.0165594483269293
0.0204100522978677
0.0204100522978677
0.0244920627574413
0.0209746841301449
0.0257694265747174
0.0254547137501782
0.0244920627574413
0.0244920627574413
0.0285740732170148
0.0285740732170148
0.0286573795529148
0.0326560836765884
0.0326560836765884
0.0341833665015988
0.040107372610733
0.0408201045957355
0.0408201045957355
0.0408201045957355
0.0433933447493897
0.0489841255148825
0.0489841255148825
0.0530013421576348
0.0530661359744561
0.0530661359744561
0.0544453186467341
0.0603693247558678
0.0653121673531767
0.0681353265145588
0.0699773221641115
0.0734761882723238
0.0775581987318974
0.0795853195723636
0.0855093256814895
0.0857222196510445
0.0891933169806033
0.0991993335493173
0.102050261489339
0.107798398667104
0.116971351876706
0.122460313787206
0.124737353635395
0.130698384782714
0.14066737631324
0.150312398759669
0.156597398991073
0.169167399453888
0.176609432128483
0.188383394270381
0.20138843893183
0.210709492294175
0.220715508862875
0.228768454667481
0.240616466885729
0.248382468644436
0.260230480862681
0.266663581246832
0.27258758735597
0.272217336974141
0.287212477437891
0.290896468736997
0.300365622252066
0.306150784468016
0.308131624010755
0.314055630119889
0.312731985004883
0.310232794927589
0.31313000416534
0.304179201184823
0.297199981487504
0.286018419956519
0.27271717498962
0.254176887119934
0.228629610774333
0.210848336187369
0.189401582820429
0.167140278613429
0.142814828527839
0.115268200120341
0.0946174850743278
0.0687554959041108
0.0578701346786068
0.040579441847554
0.0304901189429603
0.0127181006155516
0.0023973712222976
0
-0.00945064099596968
-0.0185032628314904
-0.0244920627574413
-0.0217614661915161
-0.0331466654324941
-0.0320729393252238
-0.0369232193270583
-0.044902115055309
-0.044902115055309
-0.044902115055309
-0.044902115055309
-0.044902115055309
-0.044902115055309
-0.0456426158189481
-0.0489841255148825
-0.0489841255148825
-0.0467996482621394
-0.0408756421530103
-0.046688573147591
-0.0489841255148825
-0.050372564446707
-0.0498357013930715
-0.0499745452862477
-0.0502337205535294
-0.044902115055309
-0.044902115055309
-0.044902115055309
-0.0469384921553217
-0.0451057527653193
-0.044902115055309
-0.0414217614662019
-0.0408201045957355
-0.0439024390243846
-0.0408201045957355
-0.0435044198639267
-0.0444578145971244
-0.0408201045957355
-0.0408201045957355
-0.0408201045957355
-0.0445503771925765
-0.0489841255148825
-0.0489841255148825
-0.0489841255148825
-0.0489841255148825
-0.0482899060489748
-0.0474383301707811
-0.0486879252094324
-0.044902115055309
-0.044902115055309
-0.044902115055309
-0.0484842874994176
-0.0462442726894092
-0.0489841255148825
-0.0489841255148825
-0.0517702596380753
-0.044902115055309
-0.0472902300180542
-0.0489841255148825
-0.0489841255148825
-0.0528162169667264
-0.0555560697922031
-0.0530661359744561
-0.0489841255148825
-0.0489841255148825
-0.0522700976535465
-0.0463460915444107
-0.0453001342157611
-0.0489841255148825
-0.0489841255148825
-0.0467441107048668
-0.0489841255148825
-0.0475401490257809
-0.044902115055309
-0.0489841255148825
-0.0489841255148825
-0.0483361873466967
-0.044902115055309
-0.0489841255148825
-0.0468922108576041
-0.044902115055309
-0.0489841255148825
-0.0419123432221116
-0.0461979913916734
-0.0489841255148825
-0.0489841255148825
-0.0489841255148825
-0.0489841255148825
-0.0489841255148825
-0.0488823066598897
-0.044902115055309
-0.0486879252094189
-0.0474383301707811
-0.044902115055309
-0.0489841255148825
-0.0459943536816885
-0.044902115055309
-0.0474938677280469
-0.0489841255148825
-0.0489841255148825
-0.0489841255148825
-0.0489841255148825
-0.0489841255148825
-0.0489841255148825
-0.0457444346739515
-0.0408201045957355
-0.0436617762762104
-0.0477808117739744
-0.0408201045957355
-0.044902115055309
-0.044902115055309
-0.0410144860461976
-0.0391724903966325
-0.0367380941361619
-0.0408201045957355
-0.0408201045957355
-0.0408201045957355
-0.0408201045957355
-0.044902115055309
-0.0403110103207495
-0.0328226963484076
-0.044902115055309
-0.0411625861989197
-0.0408201045957355
-0.0441616142916636
-0.0438006201693994
-0.0408201045957355
-0.0408201045957355
-0.0382746332207242
-0.0408201045957355
-0.0408201045957355
-0.0408201045957355
-0.0408201045957355
-0.0444115332993887
-0.044902115055309
-0.044902115055309
-0.0489841255148825
-0.0489841255148825
-0.0489841255148825
-0.0489841255148825
-0.0488267691026079
-0.044902115055309
-0.044902115055309
-0.0489841255148825
-0.0524274540658149
-0.0518628222335425
-0.0489841255148825
-0.0489841255148825
-0.0516314157449008
-0.0489841255148825
-0.0489841255148825
-0.0489841255148825
-0.0508353774239868
-0.0493728884158031
-0.0489841255148825
-0.0456888971166857
-0.0500393391030727
-0.0501689267367153
-0.0489841255148825
-0.0489841255148825
-0.0451612903225833
-0.0468829545980558
-0.0409589484889177
-0.0401443976488959
-0.0484472624612409
-0.044902115055309
-0.044902115055309
-0.044902115055309
-0.044902115055309
-0.044902115055309
-0.044902115055309
-0.044902115055309
-0.0429490442912108
-0.0408201045957355
-0.044902115055309
-0.044902115055309
-0.0437450826121191
-0.0408201045957355
-0.0408201045957355
-0.0408201045957355
-0.044902115055309
-0.0426991252834747
-0.036775119174344
-0.0367380941361619
-0.0367380941361619
-0.0367380941361619
-0.0367380941361619
-0.035729161845702
-0.0326560836765884
-0.0361271810061614
-0.0302031748970249
-0.0326560836765884
-0.0326560836765884
-0.0326560836765884
-0.0326560836765884
-0.0291572175683902
-0.0298329245152081
-0.0295552367288445
-0.0335169158143201
-0.0367380941361619
-0.0362752811588845
-0.0326560836765884
-0.0326560836765884
-0.0326560836765884
-0.0326560836765884
-0.0352293238302498
-0.0326560836765884
-0.0367380941361619
-0.0337853473411467
-0.0326560836765884
-0.0326560836765884
-0.0248067755819832
-0.0328874901652152
-0.0367380941361619
-0.0367380941361619
-0.0331374091729622
-0.0285740732170148
-0.0285740732170148
-0.029536724209737
-0.0326560836765884
-0.0326560836765884
-0.0326560836765884
-0.0326560836765884
-0.0326560836765884
-0.0326560836765884
-0.031045494515669
-0.0285740732170148
-0.0244920627574413
-0.0214374971074205
-0.0204100522978677
-0.0204100522978677
-0.0204100522978677
-0.0181515249687592
-0.0163095293192085
-0.01038552321007
-0.00816402091914709
-0.00816402091914709
-0.0147729902346336
-0.0163280418382942
-0.0221409728328649
-0.0285740732170148
-0.0310825195538459
-0.0329245152034109
-0.0388485213125314
-0.0408201045957355
-0.044902115055309
-0.0413477113898306
-0.044902115055309
-0.04174573055029
-0.0358217244411626
-0.0326560836765884
-0.0316193826074983
-0.0244920627574413
-0.0285740732170148
-0.0266117461933702
-0.0244920627574413
-0.0285740732170148
-0.0319803767297596
-0.0338223723793143
-0.0367380941361619
-0.0382746332206952
-0.04229184986348
-0.0371083445179728
-0.0386078585643644
-0.0326838524552223
-0.0303883000879316
-0.0289998611561081
-0.0326560836765884
-0.0293978803165645
-0.0326560836765884
-0.0326560836765884
-0.0285740732170148
-0.0285740732170148
-0.0326560836765884
-0.0285277919192882
-0.0244920627574413
-0.0343222103947842
-0.0332299717684156
-0.0339241912343262
-0.0336279909288735
-0.0326560836765884
-0.0299439996297579
-0.0240199935206156
-0.0204100522978677
-0.0287962234461071
-0.0427361503216537
-0.0336279909288624
-0.00617392511687922
0.0175220993196649
0.0601841995649068
0.128310269819944
0.23439626047101
0.408136252140383
0.622992548710889
0.803322997176725
0.937307354098117
0.944323598833869
0.703105475077794
0.365594483269652
0.13163326699698
-0.0126347942795157
-0.0783912620909445
-0.097394362937954
-0.103549775535688
-0.118026565464929
-0.114250011570318
-0.114518443097149
-0.0971907252279529
-0.0759568658305335
-0.0469570046744362
-0.0204007960383267
-0.00325820336002458
0.00533160549822221
0.011820243439631
0.0104318045078003
0.0163280418382942
0.0181978062664931
0.0204100522978677
0.0204100522978677
0.0204100522978677
0.0255657888647243
0.0227426297033476
0.0251677697042664
0.0310917758133905
0.0323783958902212
0.0285740732170148
0.0325357523024972
0.0302957374924783
0.0397834035266344
0.0394964594807336
0.0399037349007292
0.044902115055309
0.044902115055309
0.0372657009302516
0.0431897070393841
0.044902115055309
0.0468736983384983
0.0489841255148825
0.0489841255148825
0.052399685287172
0.0530661359744561
0.0530661359744561
0.0530661359744561
0.0556856574258333
0.0575276530753852
0.0656731614754417
0.0653306798722804
0.0630536400240645
0.0689776461331886
0.0708196417827537
0.076743647891893
0.0785856435414465
0.0816402091914709
0.0775581987318974
0.0825010413292099
0.089804230110618
0.0918776322488163
0.0978016383579404
0.105401027444819
0.113731661035777
0.114296292868059
0.117415652334896
0.123339658444035
0.129263664553155
0.135187670662297
0.141111676771421
0.146952376544648
0.148877678530111
0.158568982274275
0.16888971166752
0.171444439302089
0.181866987550337
0.193714999768607
0.204831767482766
0.213329013745556
0.224510575276545
0.228861017262931
0.244726246123943
0.258943860785867
0.264867866894999
0.270791873004128
0.279937057435097
0.285740732170148
0.291387050492901
0.298569907900225
0.306919054010287
0.318396815846737
0.322451057527665
0.334299069745914
0.336353959365037
0.338806868144604
0.338806868144604
0.338806868144604
0.336307678067332
0.321210718748582
0.31344471698989
0.301596704771626
0.285629657055613
0.267857638728197
0.250085620400825
0.230832600546123
0.203813578932791
0.183440551673058
0.162669505252954
0.140815476465965
0.123043458138582
0.100902485305677
0.0814643402601125
0.0656453926968055
0.04960429490444
0.0377562826861664
0.0232424677188144
0.00907113435460868
0.0103762669505363
0.00130513259592093
-0.000536863053634262
-0.00883972786596734
-0.0123848752719006
-0.0183088813810281
-0.0165872171055721
-0.0179108622205724
-0.0204100522978677
-0.0175128430601131
-0.0234368491692475
-0.0252788448188008
-0.0312028509279366
-0.0326560836765884
-0.0348868422270559
-0.0326653399361475
-0.0326560836765884
-0.0289813486370282
-0.0300087934465665
-0.0293793677974862
-0.0275373721479211
-0.0244920627574413
-0.0244920627574413
-0.0269727403156401
-0.0283334104688333
-0.0224094043597054
-0.0204100522978677
-0.0285740732170148
-0.0285740732170148
-0.0285740732170148
-0.0317026889433961
-0.0326560836765884
-0.0326560836765884
-0.0280834914611
-0.0244920627574413
-0.0285740732170148
-0.0266395149720073
-0.0207155088628662
-0.0219465913824209
-0.027870597491557
-0.0315175637524931
-0.0255935576433584
-0.0278335724533775
-0.0270745591706383
-0.0282315916138318
-0.0223075855047035
-0.0204100522978677
-0.0227056046651593
-0.0240385060397085
-0.0244920627574413
-0.0277224973388241
-0.0285740732170148
-0.0257416577960899
-0.0204100522978677
-0.0228444485583347
-0.0242976813069966
-0.0204100522978677
-0.0242884250474273
-0.0204100522978677
-0.0204100522978677
-0.0204100522978677
-0.0234923867265151
-0.0253343823760802
-0.0285740732170148
-0.0281297727588339
-0.0244920627574413
-0.0285740732170148
-0.0266857962697345
-0.0282223353542835
-0.0259823205442659
-0.0285740732170148
-0.0285740732170148
-0.0315083074929412
-0.0326560836765884
-0.0326560836765884
-0.0364418938307019
-0.0305178877215778
-0.0285740732170148
-0.0326560836765884
-0.0290739112324688
-0.0244920627574413
-0.0244920627574413
-0.0285740732170148
-0.0341463414634166
-0.0361919748229794
-0.0326560836765884
-0.0326560836765884
-0.0306659878743062
-0.0285740732170148
-0.0301661498588413
-0.0326560836765884
-0.0314620261952248
-0.0285740732170148
-0.0326560836765884
-0.0326560836765884
-0.0322580645161399
-0.0285740732170148
-0.0285740732170148
-0.0285740732170148
-0.0248900819179065
-0.0244920627574413
-0.0244920627574413
-0.0244920627574413
-0.0216041097792488
-0.0204100522978677
-0.0204100522978677
-0.0204100522978677
-0.0204100522978677
-0.0204100522978677
-0.0204100522978677
-0.0168741611514839
-0.0217059286342331
-0.0244920627574413
-0.0253899199333623
-0.0285740732170148
-0.0285740732170148
-0.0262322395520012
-0.0205118711528729
-0.0225482482528856
-0.0204100522978677
-0.0244920627574413
-0.0278798537511017
-0.0285740732170148
-0.0285740732170148
-0.0252418197806268
-0.0259823205442731
-0.0200583144351401
-0.0163280418382942
-0.0163280418382942
-0.0181237561901208
-0.0204100522978677
-0.0244920627574413
-0.0212523719165139
-0.0204100522978677
-0.0204100522978677
-0.0204100522978677
-0.0228537048178829
-0.0202064145878748
-0.0183736751978514
-0.0281853103160834
-0.0285740732170148
-0.0250844633683649
-0.0163280418382942
-0.0163280418382942
-0.0122460313787206
-0.0122460313787206
-0.0122460313787206
-0.00995047901144089
-0.0121904938214494
-0.0100615541259689
-0.0122460313787206
-0.00966353496551631
-0.0155875410746496
-0.0111445364928108
-0.0111075114546217
-0.0122460313787206
-0.00970056000370753
-0.0119405748137124
-0.00601656870458829
-0.00408201045957355
-0.0122460313787206
-0.00865460267505644
-0.0054334243532165
-0.0113574304623519
-0.0122460313787206
-0.0122460313787206
-0.0128014069514477
-0.0163280418382942
-0.0163280418382942
-0.0163280418382942
-0.0201693895496826
-0.0131253760355519
-0.00816402091914709
-0.00816402091914709
-0.00816402091914709
-0.00816402091914709
-0.00816402091914709
-0.0122460313787206
-0.0122460313787206
-0.0163187855787568
-0.0140972832878231
-0.0163280418382942
-0.0107927986300761
-0.0114592493173421
-0.0122460313787206
-0.0122460313787206
-0.0129032258064493
-0.013828851761015
-0.012505206645995
-0.0184292127551191
-0.0164668857314819
-0.0163280418382942
-0.0163280418382942
-0.0109408987828116
-0.00816402091914709
-0.00907113435460143
-0.0149951404637368
-0.0163280418382942
-0.0163280418382942
-0.0204100522978677
-0.0204100522978677
-0.0242051187115357
-0.0213819595501492
-0.0163280418382942
-0.0163280418382942
-0.0163280418382942
-0.0130050446614508
-0.0189290507705842
-0.0122460313787206
-0.0144490211505549
-0.0163280418382942
-0.0163280418382942
-0.0199750080992277
-0.0122460313787206
-0.0122460313787206
-0.00715508862869085
-0.00693293839959127
-0.00816402091914709
-0.00816402091914709
-0.0120331374091794
-0.00610913130004522
-0.00408201045957355
-0.00408201045957355
-0.00758087656777167
-0.010987180080531
-0.00816402091914709
-0.0105243671032572
-0.0094876660341381
-0.0199472393205939
-0.0117184245846455
-0.0123108251955365
-0.0144212523719278
-0.0122460313787206
-0.0122460313787206
-0.00889526542324605
-0.00519276160502774
-0.00816402091914709
-0.00745128893414829
-0.00408201045957355
-0.00816402091914709
-0.00816402091914709
-0.00416531679549313
-0.00408201045957355
-0.000481325496361087
0
-0.00320266580274949
-0.00912667191188035
-0.0122460313787206
-0.012810663210996
-0.0163280418382942
-0.0122460313787206
-0.0122460313787206
-0.00839542740778761
-0.00977461008006648
-0.00879344656824191
-0.00121257000045642
-0.00408201045957355
-0.00489656129957425
-0.00550747442958422
-0.00408201045957355
-0.00859906511778344
-0.00816402091914709
-0.0100245290877941
-0.00854352756052306
-0.00408201045957355
-0.000777525801833891
-0.00106446984773117
-0.00408201045957355
-0.00408201045957355
-0.00408201045957355
0
-0.0021104271763695
-0.00803443328550765
-0.00645161290323551
-0.000527606794095156
0.0053963993150272
0.0113204054241625
0.0163280418382942
0.0108113111491748
0.00356365992503212
-0.00472069236820074
-0.0122460313787206
