0.00877206557220254
0.0111789043661845
0.00877206557220254
0.0221987787149883
0.0271714863204575
0.0263161967166076
0.0232130983362811
0.0226264235168509
0.0263161967166076
0.022198778714926
0.0285640054930842
0.0307022295027089
0.0369084262633619
0.0356749371082487
0.0408668142475382
0.0438603278610127
0.041930579119609
0.0380323306516108
0.0438603278610127
0.0438603278610127
0.0396934646086154
0.0461575818881753
0.0438603278610127
0.0509712594762075
0.0518866885962174
0.0570184262193165
0.060231109366495
0.0614044590054178
0.0614044590054178
0.0617826585566324
0.0681478853348476
0.0788496996483916
0.0808783388912265
0.0950614511363062
0.0877206557220254
0.0946832515850969
0.0998042949427753
0.0964927212942279
0.106558415537688
0.114036852438633
0.109869989186236
0.116235215964394
0.122600442742612
0.133351702306899
0.135967016369139
0.146082155863272
0.149125114727443
0.159728038539644
0.163774622759743
0.168132598826053
0.179827344230152
0.180067902294701
0.195332141866301
0.197003970088768
0.222525016717725
0.228073704877266
0.233643781567773
0.243172246242394
0.241988202338051
0.251089022210747
0.2644769843683
0.280706098310481
0.27641895602575
0.288852738077959
0.293864196668785
0.293864196668785
0.293864196668785
0.285092131096582
0.294104754733396
0.302038893156074
0.290520540223866
0.280706098310481
0.278557180035405
0.26806384099005
0.25361211396054
0.234516433625952
0.214127124620208
0.188666217507399
0.169323310919384
0.148057323778797
0.121932239876132
0.109201786319703
0.0920532171810222
0.0602270832899199
0.0323700316487256
0.0247539532609924
0.0113058515874899
0.00325143413241106
0
-0.00579994048963188
-0.0158442462021261
-0.0219301639305063
-0.019671660888609
-0.0217818281784196
-0.0219301639305063
-0.033360320626757
-0.0394742950749114
-0.042856702505064
-0.0516568247970926
-0.0482463606471139
-0.0476984368129163
-0.0438603278610127
-0.0482463606471139
-0.0482463606471139
-0.0482463606471139
-0.0438603278610127
-0.051162372290061
-0.0482463606471139
-0.0514697380597132
-0.046613283409981
-0.0338828298535629
-0.0310911233193445
-0.0398244379063089
-0.0351657642594001
-0.0370287052956346
-0.0394742950749114
-0.0307022295027089
-0.0341942216996654
-0.0361734156917848
-0.0456029898649749
-0.0445178364620623
-0.0508830632402205
-0.0567885624201918
-0.0504233356420334
-0.0482463606471139
-0.0482463606471139
-0.0557675746098485
-0.0499248570585512
-0.0438603278610127
-0.0466386980172727
-0.0570184262193165
-0.0531308720167044
-0.0570184262193165
-0.0570184262193165
-0.05496839844564
-0.0445739499017482
-0.0471050938045158
-0.0490308164694067
-0.0494410988169406
-0.0494584612713315
-0.0577855195872181
-0.0559118842855006
-0.0441997764269894
-0.0505650032051477
-0.056930229983367
-0.0457513256171214
-0.0521165523953348
-0.0482463606471139
-0.0482463606471139
-0.0503177769516316
-0.0600333283636752
-0.0601883323047494
-0.0500451360907874
-0.0529932305300333
-0.0635640715459145
-0.049235265661177
-0.0517102961242456
-0.053307264488656
-0.05393671636985
-0.0570184262193165
-0.0570184262193165
-0.0570184262193165
-0.0486953939798867
-0.0526323934332152
-0.0482677491779557
-0.0526323934332152
-0.0486526169181974
-0.0585913639403524
-0.0649565907185107
-0.0646451988724081
-0.0582799720942497
-0.0621221071226039
-0.060396807573033
-0.0616944623206788
-0.0680596890988371
-0.0659281332781847
-0.0544739459386083
-0.0608391727168209
-0.0598462416262531
-0.0691835934870926
-0.0638179659884325
-0.054052969325674
-0.0614044590054178
-0.0639422710971294
-0.0656595184938256
-0.0656247935849783
-0.0701765245776203
-0.0641079693036693
-0.0577427425254728
-0.0570184262193165
-0.0634865695753563
-0.065790491791519
-0.065790491791519
-0.0653909037094627
-0.0637832410795878
-0.0745064439239733
-0.068225387305375
-0.0618601605272169
-0.0570184262193165
-0.0535157397569391
-0.062500306673813
-0.0596404084706144
-0.057686629085787
-0.0561096652883626
-0.0482463606471139
-0.0482463606471139
-0.0482463606471139
-0.054424500687893
-0.0532471249725283
-0.0526323934332152
-0.0559760498780723
-0.0648536741406913
-0.0672364822912702
-0.0877206557220254
-0.0902090225630204
-0.0874760715810882
-0.0745625573637216
-0.0705226413325674
-0.0553853489821445
-0.0526323934332152
-0.0614044590054178
-0.0550352061508091
-0.0650127041581966
-0.0586474773800382
-0.0570184262193165
-0.0570184262193165
-0.0570184262193165
-0.0633061510269475
-0.0696713778051607
-0.0701765245776203
-0.0736297657893311
-0.0799949925675025
-0.0803090265261443
-0.0795673477655775
-0.0859325745437727
-0.0875295429081955
-0.0811643161300063
-0.0747990893518167
-0.0745625573637216
-0.0745625573637216
-0.0671055089935746
-0.0767649469659329
-0.0710638969777448
-0.07169599097149
-0.0565586986211228
-0.0575102366138282
-0.0701765245776203
-0.0681652477892386
-0.065790491791519
-0.0642068598050626
-0.0614044590054178
-0.0646345046069873
-0.0614044590054178
-0.0621328013880244
-0.071205564540847
-0.0783471949884591
-0.0656167414321424
-0.0358499456162799
0.0129657273956958
0.057522314843187
0.125209214430875
0.224533777208752
0.374013186658751
0.589605048197425
0.790560612265902
0.929303230863707
0.978929655008832
0.75829400045327
0.394071476694541
0.14288255746406
0.000400720415670645
-0.105438663040776
-0.155614646614325
-0.166472848832788
-0.187030498157769
-0.180237626577629
-0.17704494799748
-0.144843256668063
-0.130081521756141
-0.0952217393027745
-0.0552677120624542
-0.0368335664054167
-0.0318087714365247
-0.0258310545111906
-0.016865234012514
-0.015816189482252
-0.0129068460283375
-0.00877206557220254
-0.0045624252580625
-0.00438603278610127
-0.000604037273892334
0.00301087606792794
0
0
0.00292670590834722
0.00490589990042479
0.0112711266786186
0.0130658760459053
0.00670064926771777
0.00438603278610127
0.00438603278610127
0.00800899828075123
0.00755593887153419
0.00758135347882644
0.0139465802570469
0.00924110347200462
0.00108251129045414
0.0178381605360545
0.0262493890114999
0.0175441311444051
0.0253272917025305
0.0263161967166076
0.0263161967166076
0.0219301639305063
0.0249664546057069
0.0357177141699857
0.0368656492016417
0.0352900693680606
0.0416552961462502
0.0480205229244397
0.0464930043777063
0.0475928781225146
0.0539581049006916
0.0636282371384708
0.0614044590054178
0.067158980320722
0.0784781682862082
0.0721129415079942
0.074519780302038
0.0701765245776203
0.0821800197151978
0.0893149819739029
0.10282724923993
0.109650819652532
0.115942570536551
0.119161921872762
0.128245379291005
0.127506342643039
0.136162155259357
0.153162388646072
0.15976012133588
0.169967483142439
0.184213377016253
0.187627867242669
0.200394429671711
0.213516419157345
0.216075619779882
0.223687672091165
0.228226066705801
0.236722849304612
0.253564052673704
0.258775934379975
0.255092829369189
0.270100532385697
0.279575525733241
0.285940752511412
0.289478163882684
0.294285173281683
0.298250229454886
0.293870864857817
0.293864196668785
0.293864196668785
0.290774434666461
0.278043981110145
0.268582324140568
0.243293783423507
0.221618897899228
0.197185646786017
0.17465547165789
0.153318650735971
0.13207807820266
0.111168902082657
0.0932933745250697
0.0734051862154471
0.0513093240783198
0.0365996765299039
0.0175039961953037
0.00385547140635689
-0.00501951074367327
-0.0176470477222247
-0.0219301639305063
-0.0219301639305063
-0.0373200925746085
-0.0482463606471139
-0.0394742950749114
-0.0394742950749114
-0.0402734712390241
-0.0466386980172334
-0.0442318592232516
-0.0482463606471139
-0.0482463606471139
-0.0570184262193165
-0.0531161516748328
-0.0526323934332152
-0.0456831339481104
-0.0514497334926774
-0.0614044590054178
-0.0607643128588214
-0.0543990860806258
-0.0570184262193165
-0.0548267308825572
-0.0484615041043676
-0.0526323934332152
-0.0488891489062924
-0.0539687991661128
-0.0537028264943189
-0.053541154364182
-0.0599063811423892
-0.0570184262193165
-0.0619390464616124
-0.0613509876783132
-0.0570184262193165
-0.0610302855305967
-0.0673955123088169
-0.0630080955589093
-0.0581958019346896
-0.0677175984202782
-0.0781988592363745
-0.0718336324582166
-0.0745625573637216
-0.0722612772601414
-0.0658960504819222
-0.0532711556160057
-0.0598048485284156
-0.0599584685056871
-0.0604436107111523
-0.065790491791519
-0.062792952101614
-0.0608137581095372
-0.0595883211072906
-0.0656274356975632
-0.0592622089193745
-0.0611398702974487
-0.0570184262193165
-0.0570184262193165
-0.0583053867014976
-0.0646706134796995
-0.0701765245776203
-0.0673380149052629
-0.0653588209131996
-0.0589935941349856
-0.0657985439442951
-0.0745625573637216
-0.0745625573637216
-0.0670653740444551
-0.0649392282640574
-0.0701765245776203
-0.0670694001209059
-0.0664907774542516
-0.0674970449228307
-0.065790491791519
-0.0635386569386547
-0.0614044590054178
-0.0701765245776203
-0.0625697564915179
-0.0643939465425042
-0.0614044590054178
-0.0701765245776203
-0.0672284301384318
-0.0701765245776203
-0.0676560749403622
-0.065790491791519
-0.065790491791519
-0.0617184929641026
-0.0647347790722096
-0.0738208786031115
-0.065790491791519
-0.065790491791519
-0.0701765245776203
-0.0673874601559787
-0.065790491791519
-0.0634290721718022
-0.0657450726171917
-0.0721102993954119
-0.0745625573637216
-0.0642843617756522
-0.0614044590054178
-0.0624829442193597
-0.0688481709975615
-0.0701765245776203
-0.0701765245776203
-0.065790491791519
-0.0635881021893387
-0.0614044590054178
-0.06401574699127
-0.0651583977977614
-0.0674823245809831
-0.0680570469862545
-0.0789485901498228
-0.0760499409613292
-0.0735789365748087
-0.065790491791519
-0.0657263261989935
-0.0614044590054178
-0.0654270125821189
-0.0685608097949015
-0.0693854005662949
-0.0853445157604374
-0.0631122702855699
-0.0629253093631552
-0.0729161437485461
-0.0701765245776203
-0.0701765245776203
-0.0658853562165012
-0.0639061622244428
-0.0652679825646055
-0.0745625573637216
-0.0711266786064647
-0.0755915973269482
-0.0759403561944963
-0.0695751294163189
-0.0709516700983093
-0.0743888070043449
-0.0680235802261565
-0.0699226301350716
-0.0789485901498228
-0.0789485901498228
-0.0833346229359241
-0.0767809254565179
-0.0745625573637216
-0.0745625573637216
-0.0789485901498228
-0.0813701492856758
-0.0833346229359241
-0.0813407086019959
-0.0749754818238375
-0.0701765245776203
-0.0701765245776203
-0.0745625573637216
-0.0714447386415863
-0.0570184262193165
-0.0597086001395265
-0.0614044590054178
-0.0659295172419891
-0.0744182476880233
-0.076397441680082
-0.0751345118413511
-0.0701765245776203
-0.0667900910710799
-0.0604248642929074
-0.0599772149239265
-0.0712804243987925
-0.0865420218578588
-0.100878754080329
-0.0966717558788336
-0.0880239954152893
-0.0833346229359241
-0.0869896712268361
-0.0820864134390385
-0.0789485901498228
-0.0753831220586763
-0.0817483488368853
-0.0741696374706977
-0.0725486384627575
-0.0745625573637216
-0.0726180882805091
-0.0741001876528903
-0.0774317658685352
-0.0745625573637216
-0.0756517368430844
-0.0820169636212859
-0.0870591210445878
-0.0806938942663919
-0.0791824800253356
-0.0833346229359241
-0.0833346229359241
-0.0859352166563549
-0.0833346229359241
-0.0877206557220254
-0.0877206557220254
-0.0824044734741158
-0.0818579336037368
-0.0833346229359241
-0.075889526979955
-0.0702513844355668
-0.0725085035136571
-0.0661432767354988
-0.0674169008396586
-0.0665709215374241
-0.0713752888238346
-0.077740515601993
-0.0781774707055328
-0.0745625573637216
-0.0661339664338838
-0.0724991932120422
-0.0788644199902616
-0.0789485901498228
-0.0712001545006053
-0.0321212956164342
0.0119073725638677
0.0630297357196857
0.132719859943192
0.232155517266231
0.38914683037766
0.607157608938972
0.804102571845437
0.942519078255308
0.977447555636688
0.772098409887532
0.418354504833007
0.159059080783104
-0.00796131443854084
-0.111741234005304
-0.149578174136604
-0.170536921322465
-0.201732093553428
-0.197371475374557
-0.185420067600339
-0.157552321693475
-0.131344325780039
-0.0884474883257347
-0.0501479268537409
-0.0292588811155613
-0.0219301639305063
-0.0175441311444051
-0.015270907760699
-0.0174105157341274
-0.0207794609712638
-0.00550855321051935
-0.0130258669117706
-0.0151359083865826
-0.00735689971989642
-0.0175441311444051
-0.00382338861009482
0
0
0
0
0.00168654856423745
0.000720290229767894
-0.00438603278610127
-0.00114793503169316
0.000831258960375729
0.00438603278610127
0.00877206557220254
0.00877206557220254
0.00877206557220254
0.0126823922694691
0.0214784884850954
0.0175441311444051
0.0175441311444051
0.0175441311444051
0.0175441311444051
0.0182163600872635
0.0245815868654214
0.021440995648639
0.0176056546243485
0.0387420524309469
0.0340858950816384
0.0263161967166076
0.0263161967166076
0.0330115617591268
0.0360291060160394
0.045314370513582
0.0438603278610127
0.0438603278610127
0.0528035016799494
0.063469207120903
0.0617465496839767
0.0614044590054178
0.0686370536166519
0.0789485901498228
0.0853258951572084
0.0921066885081266
0.100389711613429
0.109650819652532
0.114317545452216
0.122735442116695
0.126620354206671
0.131580983583038
0.143357382849103
0.157897180299646
0.15561200450168
0.168342458058082
0.184836160708396
0.185997432118118
0.18898968758279
0.199545808256863
0.201757508160658
0.215769637973986
0.227413554163634
0.232459737663367
0.235757974933911
0.252678064237311
0.260291374697456
0.242623064259315
0.264161692260652
0.267547999952177
0.267547999952177
0.271542496809004
0.274732407461536
0.264800328628476
0.267547999952177
0.267547999952177
0.266083263034188
0.25064124702682
0.232155014006297
0.225789787228139
0.215161448808675
0.185560351199647
0.16393491092611
0.14045319780551
0.121357517470889
0.106647869922474
0.0815918351169728
0.0596844436811373
0.0380362309130333
0.0214930830120002
0.0023974026774346
-0.00849011440977979
-0.0121665512315194
-0.0212205679661588
-0.0376274583442653
-0.0503579119006706
-0.0561764729935198
-0.049811246215312
-0.0486606690709798
-0.0550258958491946
-0.061391122627353
-0.0589842838333701
-0.0653495106115285
-0.0686383117654914
-0.0622730849873331
-0.0789485901498228
-0.0665895421407782
-0.0664734149997983
-0.0728386417779567
-0.0699212461712658
-0.0702594365883422
-0.0787762237542501
-0.0789485901498228
-0.0751625685612261
-0.0803277729444044
-0.0799762461492426
-0.077997052157173
-0.0745625573637216
-0.0784246969591039
-0.0745625573637216
-0.0789485901498228
-0.0768731477689167
-0.0705079209907593
-0.0701765245776203
-0.0701765245776203
-0.0745625573637216
-0.0745625573637216
-0.0665829997666498
-0.0729482265448081
-0.0701765245776203
-0.0701765245776203
-0.0744997757350019
-0.0726461450003832
-0.0779677372885218
-0.073073789802308
-0.0736444861311402
-0.0778874673903341
-0.0745625573637216
-0.0745625573637216
-0.0745625573637216
-0.0701765245776203
-0.074546578873073
-0.0789485901498228
-0.0815772405901286
-0.0789485901498228
-0.0776188526059582
-0.0745625573637216
-0.0701765245776203
-0.0730578113116606
-0.0745625573637216
-0.0745625573637216
-0.0746561636398657
-0.0833346229359241
-0.0793294318136772
-0.0745625573637216
-0.0745625573637216
-0.0745625573637216
-0.0745625573637216
-0.0833346229359241
-0.0806123662194515
-0.0836500408584148
-0.0854260438074776
-0.0833346229359241
-0.0814676558233011
-0.0712562679403534
-0.080387912460521
-0.0799161066331202
-0.075574234872494
-0.0849303331515669
-0.0877206557220254
-0.0902838824209665
-0.0787922022448999
-0.0766981392607319
-0.0748338142607234
-0.076270494458801
-0.0826357212369974
-0.0877206557220254
-0.0877206557220254
-0.0885733032132431
-0.0949385299914517
-0.0916816858188397
-0.0853164590406261
-0.0833346229359241
-0.0745625573637216
-0.0785183032352531
-0.0848835300134738
-0.0912487567916321
-0.095371459018603
-0.0859057759727626
-0.0884142731957255
-0.0947794999738839
-0.0921066885081266
-0.0921066885081266
-0.0921066885081266
-0.0877206557220254
-0.091517371576044
-0.0877206557220254
-0.0910897267741122
-0.0921066885081266
-0.0921066885081266
-0.0915721010519867
-0.0826930928255219
-0.083227680281715
-0.0768624535034958
-0.0786278880021056
-0.0816761310915219
-0.0789485901498228
-0.0864898086795489
-0.0801245819013906
-0.0753657596042732
-0.0761661939172131
-0.0793241475884497
-0.0833346229359241
-0.0876685683587267
-0.0877206557220254
-0.0877206557220254
-0.093606150334961
-0.093014065475288
-0.0877206557220254
-0.0846696447050153
-0.0839787951589089
-0.0850972895069471
-0.0835511503569832
-0.09211209854832
-0.0923178058889923
-0.0912568089444583
-0.0964927212942279
-0.0921066885081266
-0.0921066885081266
-0.0911939015007718
-0.0877206557220254
-0.0886909401328732
-0.0964927212942279
-0.0877206557220254
-0.089757347117636
-0.0880908031204579
-0.0877206557220254
-0.0877206557220254
-0.0912648610973087
-0.104039349864147
-0.100124997090493
-0.0992256722761213
-0.104612562490607
-0.0987980274741965
-0.109447754424502
-0.10526478686643
-0.10526478686643
-0.0979427378703469
-0.100878754080329
-0.0964927212942279
-0.0994942870605209
-0.105859513838699
-0.104502977723807
-0.0919396063377829
-0.0898669318844557
-0.0962321586626469
-0.0877206557220254
-0.0951163064272143
-0.090815701949557
-0.0942610168233647
-0.0964927212942279
-0.0964927212942279
-0.0916709915534197
-0.0877206557220254
-0.0920986363553506
-0.085733409577129
-0.0873010630728765
-0.0921066885081266
-0.0921066885081266
-0.0877206557220254
-0.0908318062551282
-0.0914023767690056
-0.0850371499908473
-0.0874439887848301
-0.0810787620066708
-0.0789485901498228
-0.0851628390632516
-0.0877206557220254
-0.0950921499688251
-0.0853471578731089
-0.0877206557220254
-0.0877206557220254
-0.102514599244989
-0.116561328152279
-0.114036852438633
-0.111940021526918
-0.101498769844924
-0.112989191872176
-0.111126125020974
-0.0908651472002293
-0.0877206557220254
-0.0937344815200716
-0.100878754080329
-0.0917204368040799
-0.092451547114235
-0.0921480816060043
-0.0964927212942279
-0.0886587315216424
-0.0951270006926351
-0.0973894039959673
-0.0997402551652164
-0.109650819652532
-0.105919653354836
-0.107016759172032
-0.109423597966051
-0.10526478686643
-0.109450396537087
-0.109650819652532
-0.102134889915068
-0.102229880155035
-0.10526478686643
-0.101802235353105
-0.10526478686643
-0.104768950395586
-0.100878754080329
-0.10526478686643
-0.0991226298833358
-0.0921066885081266
-0.102498494939436
-0.101665852015267
-0.0953006252370459
-0.101620558655844
-0.102971433100659
-0.0921066885081266
-0.0917698820547942
-0.0900366561674139
-0.087811494070619
-0.0833346229359241
-0.0872021725714999
-0.0906420774051052
-0.0964927212942279
-0.097525787333842
-0.0948542340169011
-0.0715354511752747
-0.0293708563651578
0.0229968225450939
0.0719730353534896
0.154399023173403
0.281808236723427
0.476972289900623
0.700039694597019
0.864946022268311
0.970187281750439
0.882395918061146
0.553958419438204
0.23874066846626
0.0258475362616811
-0.115301669500983
-0.177373953927778
-0.198021183452703
-0.229113564920752
-0.222545021284698
-0.209936104909492
-0.186454391788732
-0.159276111464457
-0.125758144783856
-0.0916654556983913
-0.0704570917762416
-0.0602737606132738
-0.0488142890483545
-0.0526323934332152
-0.0492419338502863
-0.0472627398582151
-0.0438603278610127
-0.0575744022062896
-0.0563341190472834
-0.0437319966759634
-0.0394742950749114
-0.0435610142441372
-0.0465664802719095
-0.0438603278610127
-0.0413558567144655
-0.0318568327234349
-0.0315268202741022
-0.0322844775253597
-0.0307022295027089
-0.0283260895411832
-0.021960862762963
-0.0219301639305063
-0.0219301639305063
-0.0247953463589325
-0.0184301195807234
-0.0241297856051069
-0.014471731596554
-0.0138236591121303
-0.0175441311444051
-0.0173062151925043
-0.0109409884143144
-0.00457576163612527
-0.0061754979281588
-0.00877206557220254
-0.00302421244597362
0
-0.00345185724790448
0
0.00489256352236719
0.00877206557220254
0.00892983744087072
0.0175441311444051
0.0175441311444051
0.0295770669656648
0.0242593749390561
0.0263161967166076
0.0294981810312665
0.0314773750233869
0.0350882622888101
0.0357832637263166
0.046187022571823
0.0482463606471139
0.058917476128202
0.0614044590054178
0.0687333020054386
0.0814637555618534
0.0931504488131616
0.0934697669970938
0.0989571833066688
0.119227471429041
0.127383421498122
0.138083977662858
0.148885940626703
0.146479101832684
0.156563542494315
0.163595588175158
0.163377676790336
0.173709469520389
0.192805149855016
0.20614354094676
0.215888658857407
0.236816329765851
0.234468372339104
0.236845770449468
0.234040727537179
0.243966138181207
0.236845770449468
0.246243387641302
0.254389901593874
0.251685007331854
0.254389901593874
0.254389901593874
0.254389901593874
0.240069022047163
0.220973341712525
0.213493646662718
0.200326112187811
0.182224746907616
0.163547275258375
0.138653038398059
0.114465629574501
0.0962146703932876
0.0771295585092437
0.045303424618286
0.0229350474353567
0.0102045938789634
-0.00252585967738923
-0.0152563132337947
-0.0332080846130031
-0.0494892859187553
-0.053447673902881
-0.0709517959131999
-0.0745825619307572
-0.0740949034276618
-0.0828869735669576
-0.0877206557220254
-0.0842099171068224
-0.0899284553643697
-0.0964927212942279
-0.092782943527373
-0.0964927212942279
-0.0962441110769063
-0.0921066885081266
-0.0963136867096247
-0.0946925618867484
-0.0883273351085533
-0.0934792031136753
-0.0931410126965803
-0.0930515583117444
-0.0964927212942279
-0.101395979082015
-0.102768367872632
-0.096582301493983
-0.100878754080329
-0.0968307858963988
-0.0992376246903807
-0.0964927212942279
-0.0996652694923055
-0.0964927212942279
-0.100878754080329
-0.100878754080329
-0.0957763313258816
-0.0923954336744877
-0.0921761383258792
-0.0877206557220254
-0.0877206557220254
-0.0877206557220254
-0.0877206557220254
-0.0921066885081266
-0.0921066885081266
-0.0883474654905564
-0.0921066885081266
-0.0921066885081266
-0.0899283295494323
-0.0877206557220254
-0.0833346229359241
-0.0796047147870661
-0.0802716595046545
-0.0899391496297905
-0.0930021130610274
-0.0993673398392354
-0.0964927212942279
-0.0964927212942279
-0.0921066885081266
-0.0921066885081266
-0.0881081655749116
-0.0877206557220254
-0.0877206557220254
-0.0921066885081266
-0.0858202218493958
-0.0840710174713067
-0.090436244249465
-0.0971102207611455
-0.100688899415401
-0.0922255835765953
-0.0909118245234576
-0.0794951300202223
-0.0876325853009171
-0.0999045694079988
-0.0877206557220254
-0.0907048590338654
-0.0877206557220254
-0.0877206557220254
-0.0921066885081266
-0.0921066885081266
-0.0921066885081266
-0.0877206557220254
-0.0950815815183088
-0.0933803126122432
-0.0964927212942279
-0.0921066885081266
-0.0892815152138354
-0.0877206557220254
-0.0877206557220254
-0.0877206557220254
-0.0921066885081266
-0.0881576108256279
-0.0951911662851622
-0.104400186960953
-0.10526478686643
-0.0990772107090442
-0.0958057720095606
-0.0894405452313654
-0.0921066885081266
-0.0898681900332953
-0.0919383481889443
-0.0921066885081266
-0.0921066885081266
-0.0934898973790963
-0.0998551241572963
-0.0984038494323035
-0.102330028805286
-0.0882485749891323
-0.0971209150265663
-0.100778479615153
-0.098572189751522
-0.100878754080329
-0.091024303032764
-0.103754756589079
-0.100878754080329
-0.104082126925831
-0.10008222002881
-0.104819905424958
-0.113299073939445
-0.100568620383126
-0.0964927212942279
-0.0984131597339542
-0.104778386512167
-0.0993859604425277
-0.0964927212942279
-0.0964927212942279
-0.0995370641222049
-0.104627282832479
-0.098262056054283
-0.105894364562509
-0.11623383200062
-0.109868605222429
-0.104366594385981
-0.100233323708507
-0.108317056032279
-0.10526478686643
-0.104358668048109
-0.0979934412699008
-0.100400280063937
-0.0989503893027314
-0.10526478686643
-0.103234763659853
-0.104887971278965
-0.106867165271083
-0.116813964445954
-0.111687385233177
-0.108418714461216
-0.11179558603622
-0.0981524712874686
-0.104945342867552
-0.100878754080329
-0.105156586063383
-0.109650819652532
-0.105800632471409
-0.108151483640601
-0.107191767680249
-0.106280490451592
-0.106655922075272
-0.109650819652532
-0.112218072427861
-0.114036852438633
-0.114036852438633
-0.114036852438633
-0.114036852438633
-0.106654538111508
-0.106549105235967
-0.106387307290895
-0.106121460434036
-0.109650819652532
-0.10526478686643
-0.10526478686643
-0.105266170830173
-0.109650819652532
-0.105691047704612
-0.103711853712492
-0.100878754080329
-0.107515363570456
-0.114036852438633
-0.0978880083944041
-0.11329529949298
-0.11376685369047
-0.107401626912279
-0.101036400134092
-0.10526478686643
-0.10526478686643
-0.100878754080329
-0.104251851208818
-0.103332270197513
-0.0994381736207934
-0.108573592587476
-0.100878754080329
-0.114036852438633
-0.109856526993203
-0.109334143581201
-0.112374334517843
-0.109650819652532
-0.10526478686643
-0.10526478686643
-0.104457558549491
-0.103665176389327
-0.104885203351416
-0.103237531587401
-0.113940729864814
-0.107719686947385
-0.10526478686643
-0.100754323156763
-0.0955893704034555
-0.098727067877736
-0.0921066885081266
-0.0977891178929715
-0.10526478686643
-0.10526478686643
-0.103065039376895
-0.105057695561954
-0.107878716964927
-0.10526478686643
-0.0995342961946555
-0.0964927212942279
-0.100878754080329
-0.100878754080329
-0.0964927212942279
-0.0989610835681513
-0.0964927212942279
-0.0985334387662265
-0.0968588426162725
-0.0976526087401814
-0.0921066885081266
-0.0996933262121791
-0.0933280994340217
-0.0928644715743509
-0.0937557442359465
-0.0877206557220254
-0.0877206557220254
-0.0791436032250761
-0.0789485901498228
-0.0750877087032791
-0.0789485901498228
-0.0823818267944347
-0.0812818272347596
-0.0775681492064026
-0.0783498371011663
-0.0745625573637216
-0.0745625573637216
-0.0745625573637216
-0.0786920535946297
-0.0955520033819036
-0.108282456938296
-0.108355807017574
-0.10526478686643
-0.0964927212942279
-0.0964927212942279
-0.0912272424459367
-0.0833346229359241
-0.0833346229359241
-0.0833346229359241
-0.0833346229359241
-0.0805122175691814
-0.0868774443473387
-0.0854486904871578
-0.0789485901498228
-0.0833346229359241
-0.080647091128358
-0.0841767019766737
-0.0964927212942279
-0.100731802291986
-0.101600302458947
-0.0964927212942279
-0.100878754080329
-0.100878754080329
-0.0984466264939876
-0.0993524936824597
-0.0838839307338731
-0.0902491575120859
-0.0833346229359241
-0.0854354799240599
-0.0836406047418325
-0.0833346229359241
-0.0833346229359241
-0.0820890555516388
-0.0853981129025095
-0.0904708433434057
-0.0805375063615065
-0.0841151784967955
-0.0897372167356339
-0.0833719899574137
-0.0901648615375586
-0.0798786137966638
-0.0848488051045663
-0.0772405272397755
-0.0679635665249539
-0.0776282887225406
-0.0826757303711304
-0.0763105035929356
-0.051244906856002
-0.0108431044319129
0.0337134830154119
0.0977389177530534
0.188010847759832
0.327101847780547
0.55109864705032
0.760041191794108
0.904638354542926
0.997016299947691
0.872057960401366
0.527099079853149
0.235506093528669
0.0241763371136693
-0.100057560311267
-0.153981821006898
-0.173845978673274
-0.202511390965334
-0.192985442588456
-0.184742428617352
-0.161260715496589
-0.137524982118561
-0.101399627713569
-0.066993030484307
-0.0492752747953889
-0.0409308540251588
-0.0282004004687443
-0.0296651373867067
-0.0232999106085055
-0.0257067494025303
-0.0219301639305063
-0.026134394204455
-0.0219301639305063
-0.0260703544268354
-0.0228494933119886
-0.0101190397555965
-0.0131580983583038
-0.0131580983583038
-0.0166660690459573
-0.0103008422677491
-0.00393561548958435
0.00242961128862993
-6.8317483752341e-05
-0.00915416538489351
-0.000404872307340992
-0.00596035447087968
-0.00877206557220254
0
0
0
0
0
0.00227058127106115
0.000136257522922646
0.00552880940748767
0.0131580983583038
0.0145733900255154
0.0175441311444051
0.0219301639305063
0.0219301639305063
0.0224901659938684
0.0263161967166076
0.030834586764148
0.0393113647959234
0.0438603278610127
0.0455442343126445
0.0482463606471139
0.0438603278610127
0.0373894165774843
0.0455175615565773
0.0526323934332152
0.0614044590054178
0.0590242929675051
0.0613777862493501
0.0721290458136082
0.0745625573637216
0.0789485901498228
0.0859567310021628
0.0943011517724071
0.107031605328807
0.119092472054948
0.125457698833144
0.131822925611327
0.133745880348762
0.131580983583038
0.146532573159788
0.152897799937984
0.160628873132677
0.170014286280464
0.17731771467322
0.187130772622944
0.189109966615008
0.197964944197984
0.206392276978929
0.221363745307905
0.223687672091165
0.234094198864284
0.24045942564244
0.254389901593874
0.251203891202827
0.255169073190939
0.256017568790851
0.263161967166076
0.263161967166076
0.263161967166076
0.263161967166076
0.263161967166076
0.261686535982728
0.255321309204521
0.24581272328208
0.226405776916321
0.213055181780468
0.193959501445882
0.170285291547656
0.144824384434899
0.127665246845639
0.10267463578161
0.0846602085884803
0.069296952700523
0.0471316407456154
0.0271472040472337
0.00742219764635268
-0.00138333468580793
-0.0131580983583038
-0.0176110646644153
-0.0283288574687317
-0.034694084246892
-0.0438603278610127
-0.0509887477455293
-0.0570184262193165
-0.060154991359648
-0.0599450063127183
-0.055341313771622
-0.0617065405498446
-0.068071767328001
-0.0744369941062199
-0.08080222088438
-0.0795017982092553
-0.075988543296354
-0.0891641299240366
-0.0891116651159611
-0.0759710550269957
-0.0833346229359241
-0.0782348422941717
-0.0748486604174418
-0.0833346229359241
-0.0792331834248895
-0.0762571580807341
-0.0789485901498228
-0.0770964691939735
-0.0800884730287391
-0.0754018684769247
-0.0817670952550811
-0.0829229566246457
-0.0789485901498228
-0.0789485901498228
-0.0833346229359241
-0.0872770324294459
-0.0802634815369523
-0.0745625573637216
-0.0767327383547045
-0.0670894046879602
-0.0826543418402897
-0.0736296399743643
-0.0743099210700119
-0.0679446942918219
-0.0742125403472912
-0.0789485901498228
-0.0751652106738615
-0.0775720494678862
-0.0745625573637216
-0.0833346229359241
-0.0833346229359241
-0.0833346229359241
-0.0833346229359241
-0.0833346229359241
-0.0833346229359241
-0.0873866171962414
-0.0844303447893506
-0.0825729396082153
-0.0821171122715134
-0.0789485901498228
-0.0797384560123087
-0.086103682790469
-0.0877206557220254
-0.0877206557220254
-0.0834000466772887
-0.0877206557220254
-0.0799347272364137
-0.0775348082612588
-0.0798693034950492
-0.0789485901498228
-0.0759109155108787
-0.0802102618396609
-0.0825005960479989
-0.0789485901498228
-0.0789485901498228
-0.0789485901498228
-0.0868441034022271
-0.0921066885081266
-0.089047751153246
-0.0921066885081266
-0.0868212050927375
-0.0862132675573205
-0.0872488498946684
-0.0857856227553957
-0.0877648167474534
-0.0941300435256715
-0.0964927212942279
-0.0893163659376455
-0.099256496923481
-0.0953246558805326
-0.0921066885081266
-0.0972331419059985
-0.0981591394765015
-0.0961799454843821
-0.0875227489043209
-0.0876057867299447
-0.0902423635081486
-0.0915641747141151
-0.0980053936842226
-0.0955225626982855
-0.104255751470302
-0.100878754080329
-0.0997159728919217
-0.0946672730944238
-0.100878754080329
-0.0987458142959328
-0.0964927212942279
-0.100878754080329
-0.0971942651057985
-0.102156404260878
-0.102007942693827
-0.0973427266728017
-0.103707953451008
-0.10526478686643
-0.102863232297676
-0.100878754080329
-0.102852663847161
-0.10526478686643
-0.0993324891154243
-0.10001818025124
-0.0997601339173491
-0.0964927212942279
-0.105955762227486
-0.109650819652532
-0.114036852438633
-0.114036852438633
-0.114036852438633
-0.114036852438633
-0.114036852438633
-0.115424087385991
-0.111690027345823
-0.106224377011857
-0.109650819652532
-0.100878754080329
-0.100878754080329
-0.100878754080329
-0.102962248614012
-0.101202098340692
-0.102534603812087
-0.108899830590246
-0.109650819652532
-0.109650819652532
-0.106065346994337
-0.112430573772496
-0.113663937112651
-0.107298710334493
-0.109596090176588
-0.112112387922519
-0.109650819652532
-0.111147639366721
-0.114036852438633
-0.110719994564796
-0.117085221342998
-0.109009289542192
-0.107885510968865
-0.105478672174846
-0.109650819652532
-0.113823092945123
-0.114036852438633
-0.114036852438633
-0.108313029955892
-0.108581770555172
-0.117512740330025
-0.114036852438633
-0.113554352345853
-0.112112513737422
-0.118422885224734
-0.114354786658803
-0.109650819652532
-0.114036852438633
-0.110451253965535
-0.106443546545549
-0.112808773323705
-0.113285737561442
-0.109650819652532
-0.109650819652532
-0.109650819652532
-0.109650819652532
-0.11340085818333
-0.114568671967223
-0.109650819652532
-0.116503956563692
-0.106591630667884
-0.0964927212942279
-0.105856871726055
-0.104508261949099
-0.101043194138029
-0.107408420916216
-0.109650819652532
-0.10526478686643
-0.101569603626481
-0.100878754080329
-0.104146292518354
-0.100018054436336
-0.102172508566428
-0.10526478686643
-0.110089284534785
-0.105259376826299
-0.10484796214483
-0.109650819652532
-0.106821746096756
-0.106114666430099
-0.10200806850873
-0.102156278445928
-0.10526478686643
-0.0999030596292879
-0.100878754080329
-0.100878754080329
-0.105111166889057
-0.102704328095039
-0.101460018859627
-0.094902546933684
-0.114387246899842
-0.103324218044735
-0.0994421996971813
-0.0964927212942279
-0.0964927212942279
-0.0963777264872437
-0.0921066885081266
-0.0880333057169676
-0.0850011669331012
-0.0913663937112615
-0.0945844868986314
-0.104096847267639
-0.100878754080329
-0.100878754080329
-0.10526478686643
-0.100539179699511
-0.0878087261430705
-0.100363038857298
-0.113093492413726
-0.108143305672921
-0.108751494838147
-0.112956983260947
-0.106591756482746
-0.10461256249067
-0.0982473357124739
-0.0964927212942279
-0.0986964948601523
-0.113427656754367
-0.11048459491065
-0.10526478686643
-0.108302335690471
-0.10526478686643
-0.100878754080329
-0.103778787232567
-0.105757981224629
-0.109650819652532
-0.114102401994901
-0.116378141676346
-0.114036852438633
-0.118422885224734
-0.122019177963253
-0.117233431280197
-0.114036852438633
-0.108889010509919
-0.110746793135769
-0.113034359416571
-0.100878754080329
-0.10517130640519
-0.114036852438633
-0.110171944915701
-0.108192750923637
-0.10526478686643
-0.100878754080329
-0.097869136161261
-0.0895289930971617
-0.103460727197468
-0.100703619757208
-0.0986470496094343
-0.10914579869492
-0.100084736326598
-0.0921066885081266
-0.102177792791674
-0.101986554162985
-0.0772348655700273
-0.0326782781225556
0.00749227653888784
0.0568947501851748
0.131886965388528
0.266793362258416
0.468059689100133
0.682687431155941
0.840361164215002
0.947557083787059
0.882561113008099
0.562530690968158
0.229065126188305
0.0197676576472479
-0.108521253594643
-0.170054798674281
-0.182786384564573
-0.208247291677343
-0.214915606518962
-0.208139971578364
-0.184675495097279
-0.165134933321205
-0.131540345374451
-0.0882161147480816
-0.0655391136467048
-0.0549135431547917
-0.0485483163766353
-0.0553411879567185
-0.0526323934332152
-0.0545192392979661
-0.0482463606471139
-0.0474244119883655
-0.0438603278610127
-0.043466024004189
-0.0394742950749114
-0.0394742950749114
-0.0370341153357661
-0.0316242009967738
-0.0307022295027089
-0.0307022295027089
-0.0296116660596025
-0.0232464392814005
-0.022593082571688
-0.0210319714500551
-0.00900733941145742
-0.0198015018523341
-0.017928873069741
-0.0219301639305063
-0.0143981298874932
-0.0117989201308221
-0.0121104377917843
-0.0209986305049535
-0.0175441311444051
-0.0116464324874438
0
-0.00430978896441212
-0.00411087562761883
-0.00473743376633604
0.00438603278610127
0.000779045782161504
0
0
0.00438603278610127
0.00713773018619147
0.0084272069660942
0.00438603278610127
0.00438603278610127
0.0125648811646799
0.0252953347211107
0.0219301639305063
0.0253781209169283
0.0307022295027089
0.033722541687198
0.0432468544705464
0.0420669624574716
0.057204254807858
0.0614044590054178
0.0655486755781338
0.0780373129211185
0.0833346229359241
0.0859540888894594
0.0921066885081266
0.101760842255164
0.10526478686643
0.110105263025438
0.118904127168667
0.131607782154011
0.139979001495324
0.148724268496548
0.156667843035883
0.169398296592196
0.176592014403293
0.182957241181496
0.186382551488207
0.202775979673303
0.210234160377468
0.20614354094676
0.227412547644607
0.230612775117816
0.239552174490194
0.242651120979188
0.249016347757391
0.249012195866082
0.245617836021671
0.250567896947529
0.251846679462005
0.245617836021671
0.243502258691725
0.237137031913569
0.229083872607329
0.209019166010861
0.190464867136264
0.177734413579951
0.150180575816867
0.12753150562046
0.112821858071899
0.0913419856231228
0.0746078507230866
0.051148784282186
0.035988845252033
0.0085713908269477
-0.00350809650255897
-0.0120758386977785
-0.0311715190323907
-0.0394742950749114
-0.0474327157710032
-0.0570184262193165
-0.0614687504128454
-0.0699948478803732
-0.0737715591672913
-0.0789485901498228
-0.0759324298566243
-0.0889957896048308
-0.0911644608171528
-0.0906420774051052
-0.0915921056190856
-0.0927082094843316
-0.10517784877932
-0.0988126220011008
-0.0964927212942279
-0.0937451757854302
-0.0964927212942279
-0.0945283734588841
-0.100878754080329
-0.100878754080329
-0.100878754080329
-0.10526478686643
-0.102930040002844
-0.100878754080329
-0.0964927212942279
-0.100379017348002
-0.109650819652532
-0.106192168400689
-0.10526478686643
-0.108295793316341
-0.109026651996646
-0.10526478686643
-0.105068264012468
-0.100878754080329
-0.105033664918466
-0.10526478686643
-0.101537520830216
-0.103944359624242
-0.100878754080329
-0.10786525477202
-0.0980067776479666
-0.106195062143084
-0.10670385754732
-0.0964927212942279
-0.0985094081227409
-0.0968828732597591
-0.0921066885081266
-0.09567492452677
-0.0921066885081266
-0.0921066885081266
-0.0964927212942279
-0.0937797748794341
-0.0924127961289385
-0.0964927212942279
-0.0879637300842472
-0.0946350644832817
-0.084432986902015
-0.0949667125262061
-0.0940603420780476
-0.0843369901430349
-0.0907022169212414
-0.0921066885081266
-0.0921066885081266
-0.0833346229359241
-0.0833346229359241
-0.0833346229359241
-0.0894192825154651
-0.084751046937133
-0.0889916377135403
-0.0953568644917006
-0.0948060469150476
-0.0877206557220254
-0.0964927212942279
-0.0964927212942279
-0.0921186409223881
-0.0921066885081266
-0.0921066885081266
-0.0905670917322537
-0.0912394464900053
-0.0964927212942279
-0.0964927212942279
-0.0941596100241966
-0.107928288030549
-0.0964927212942279
-0.100964434018599
-0.101049736512157
-0.0964927212942279
-0.0964927212942279
-0.0907261217498029
-0.0877206557220254
-0.0886735776784182
-0.0921066885081266
-0.0975432756031558
-0.102760315719856
-0.10097638643286
-0.10734161321108
-0.105594799315823
-0.10526478686643
-0.101636411331649
-0.104043250125631
-0.100878754080329
-0.100084862141454
-0.0964927212942279
-0.110017066789482
-0.109345970180619
-0.10526478686643
-0.10142919421227
-0.100389711613421
-0.102368905605487
-0.10526478686643
-0.104202280143198
-0.100878754080329
-0.104629924945124
-0.0956506422535247
-0.101293188319096
-0.109650819652532
-0.105485214548974
-0.112278086129094
-0.102174899049266
-0.103540997095548
-0.11296113515224
-0.109650819652532
-0.112533490350315
-0.10526478686643
-0.107719812762291
-0.10526478686643
-0.109319549054298
-0.106023702266651
-0.0964927212942279
-0.0964927212942279
-0.100878754080329
-0.100878754080329
-0.10013430739217
-0.104663643334878
-0.112452843007469
-0.0944026843864491
-0.100767911164639
-0.0958433906608606
-0.0970312090118523
-0.0979334275686887
-0.100878754080329
-0.0975057827667454
-0.103871009544946
-0.105850203537029
-0.107086208989822
-0.10526478686643
-0.10526478686643
-0.109380946719275
-0.107941498593671
-0.101576271815513
-0.0964927212942279
-0.0964927212942279
-0.0921066885081266
-0.0921066885081266
-0.100878754080329
-0.0960675927900425
-0.0921066885081266
-0.0989008182371126
-0.0885784616235642
-0.102429045121623
-0.0946763317662275
-0.0899659482007594
-0.0933908810627597
-0.0921066885081266
-0.0921066885081266
-0.0962253646587085
-0.0921066885081266
-0.0921066885081266
-0.0921066885081266
-0.0883085886903555
-0.0921066885081266
-0.0921066885081266
-0.0921066885081266
-0.089163878294207
-0.0926426599280116
-0.0939775558822331
-0.0922150151260788
-0.0964927212942279
-0.0964927212942279
-0.0964927212942279
-0.0928536514940256
-0.094028259281787
-0.0812978057254703
-0.0981018937028193
-0.0996972264737288
-0.0921066885081266
-0.0944628239025546
-0.0964927212942279
-0.0921066885081266
-0.0999220576773543
-0.0921066885081266
-0.0921066885081266
-0.0931798894967803
-0.09954511627498
-0.0995876417068754
-0.0894819383293053
-0.0923245998929307
-0.0964927212942279
-0.0964927212942279
-0.0877206557220254
-0.0839720011549715
-0.0904042872680867
-0.099813731059357
-0.09557855032313
-0.0950000534713309
-0.100392227911162
-0.0964927212942279
-0.0963749585597595
-0.08975873108138
-0.0921066885081266
-0.0937171190655565
-0.0929030967447409
-0.0921066885081266
-0.0921066885081266
-0.0957375803406475
-0.0893723535624892
-0.0877206557220254
-0.0877206557220254
-0.0834347715861947
-0.0895997010638132
-0.0921066885081266
-0.0833346229359241
-0.0867652174679046
-0.0823108671979858
-0.0819515398798609
-0.0883167666580454
-0.0921066885081266
-0.0880575879901989
-0.0921974010418791
-0.0835938016037601
-0.0860006403977439
-0.0796354136195856
-0.089013026244382
-0.0822919949648854
-0.0754272830841515
-0.0789485901498228
-0.0785115092313157
-0.0721462824531574
-0.0745814295968861
-0.0833346229359241
-0.0833346229359241
-0.0936676738148412
-0.0929525419954059
-0.0734292168589337
-0.0732890590745095
-0.0766796444723108
-0.0930904351119459
-0.100600703179389
-0.091978231508173
-0.0961935334922549
-0.0997759865931406
-0.0921066885081266
-0.0966728882128261
-0.0809583571594949
-0.084308933423159
-0.0906741602013658
-0.0838812886212301
-0.0877206557220254
-0.0833346229359241
-0.085432837811415
-0.0877206557220254
-0.0772780200762548
-0.0745625573637216
-0.0770484079070042
-0.0865567421996225
-0.0948621603547948
-0.0877206557220254
-0.0921066885081266
-0.0921066885081266
-0.0921066885081266
-0.0921066885081266
-0.0881883096580918
-0.0877206557220254
-0.0877206557220254
-0.0899388979999776
-0.080271533689749
-0.0826783724837763
-0.0763131457055805
-0.0789485901498228
-0.0745329908651961
-0.0785505118464192
-0.0815544680955435
-0.0864672878147722
-0.0792770928205749
-0.0735082286081721
-0.0692516593411014
-0.0686945510201441
-0.0750597777983096
-0.0814250045765232
-0.0831258960379585
-0.0619814460785181
-0.0204086844985541
0.0141127817232059
0.0667054176517874
0.155062696703924
0.272769695219404
0.472091049718274
0.686519375177708
0.827290129759501
0.942420816827774
0.891974834505886
0.555788900233762
0.213937269954598
0.0233904973275753
-0.0935901718444058
-0.152476697510187
-0.152138758722902
-0.194199052991338
-0.196585509773555
-0.192447961389933
-0.17119392666377
-0.141595471167316
-0.11069395088292
-0.0661373634358111
-0.0456402310716466
-0.0361920362950768
-0.0315776494885616
-0.0322336483109023
-0.0219301639305063
-0.0243571331064914
-0.0306820991207057
-0.0243168723425493
-0.0219301639305063
-0.0247445171444722
-0.0183792903662633
-0.0120140635880931
-0.00877206557220254
-0.0124417083900199
-0.00607648161182126
-0.00848332040584143
-0.0021180936276528
0
-0.00254573842958366
0
0
-0.00339184354668608
-0.00537103753875716
-0.00580786682744124
0
0
0
0.00210890914091174
0.00438603278610127
0.00438603278610127
0.0117069494481854
0.0231837834675685
0.0263161967166076
0.0167181564092677
0.0103529296311093
0.00877206557220254
0.0111495894974722
0.00880138044091512
0.0126718238188923
0.0214732042598609
0.0263161967166076
0.0298176250301326
0.0350882622888101
0.0350882622888101
0.0364221517239474
0.046506466570676
0.0440996277766565
0.0549018423703171
0.0656021469052381
0.0691900100463168
0.0538643728096267
0.071539728881491
0.0779049556596943
0.0814635039320444
0.0803920643518135
0.101386668780338
0.102777678174309
0.105345056764507
0.111710283542726
0.114036852438633
0.12770437527565
0.139578029449468
0.140353049155241
0.143536417433643
0.151454703180709
0.170550383515184
0.184213377016253
0.186541455690806
0.188599409802355
0.205558375905917
0.210529573732861
0.223687672091165
0.227139655153974
0.232459737663367
0.235484075924245
0.238080769383179
0.248214529480618
0.237225479779325
0.249955933335704
0.250241658944769
0.254389901593874
0.250669303746693
0.251317627860927
0.254389901593874
0.243845607519124
0.231115153962811
0.218384700406477
0.200778919967237
0.188537760507506
0.169777251032747
0.145929542404867
0.125251488232813
0.103352148949641
0.0874877723656005
0.065160788280528
0.0511782249658056
0.0357414931836117
0.0163463734172772
-0.00227863342387142
-0.0129016876180143
-0.0256321411743836
-0.0345324121167406
-0.0452836716810224
-0.0550514362713278
-0.0580141252373934
-0.0643793520155999
-0.0713126330099124
-0.0814958383580821
-0.0792294089782532
-0.0877206557220254
-0.0836218583236357
-0.0894126143264332
-0.0847643833152008
-0.0845989367384052
-0.0909641635165655
-0.0860473177209089
-0.0789485901498228
-0.0881296799206569
-0.089718470317438
-0.0877206557220254
-0.0877206557220254
-0.0956001904837791
-0.0861877271351863
-0.0868467455148701
-0.0877206557220254
-0.0846361779450082
-0.0877206557220254
-0.0877206557220254
-0.0830846287548594
-0.0811777783229762
-0.0875430051011672
-0.0815330795647015
-0.0827293275131392
-0.0863467571527336
-0.0799815303745325
-0.0833346229359241
-0.0833346229359241
-0.0833346229359241
-0.0833346229359241
-0.0789485901498228
-0.0789485901498228
-0.0789485901498228
-0.0789485901498228
-0.0789485901498228
-0.0757774259154873
-0.0821426526936457
-0.0841218466857651
-0.0849542379801254
-0.0749221363116397
-0.0789485901498228
-0.0832665570819145
-0.0808597182878713
-0.0833346229359241
-0.0760460406998472
-0.0824112674780528
-0.0778927516156239
-0.0806326224163198
-0.0877206557220254
-0.0877206557220254
-0.0877206557220254
-0.0833611698771505
-0.0789485901498228
-0.0877206557220254
-0.0877206557220254
-0.0833346229359241
-0.0899419175572767
-0.0859270386886365
-0.0847005951673219
-0.0921066885081266
-0.0921066885081266
-0.0920651695952818
-0.0856999428171234
-0.079334716038967
-0.0833346229359241
-0.0797623608408391
-0.0757279806647739
-0.0789485901498228
-0.0840724014350497
-0.0822867107395827
-0.0792587238470256
-0.0833346229359241
-0.0833346229359241
-0.0789485901498228
-0.0827894670292754
-0.0877206557220254
-0.0877206557220254
-0.0833346229359241
-0.0863202102115271
-0.0827558744543571
-0.0789485901498228
-0.0786463827905543
-0.0723068222493737
-0.0786720490275321
-0.0806512430196515
-0.0833346229359241
-0.0833346229359241
-0.0800804208759631
-0.0789485901498228
-0.0789485901498228
-0.0789485901498228
-0.0765496776937134
-0.0701844509154928
-0.0677617594457056
-0.0701765245776203
-0.0688777374960388
-0.0745625573637216
-0.0669064698418541
-0.0732716966200584
-0.0745625573637216
-0.0745625573637216
-0.0704372130241058
-0.0745625573637216
-0.0703434809330576
-0.065790491791519
-0.065790491791519
-0.0699442702956572
-0.0789485901498228
-0.065790491791519
-0.065790491791519
-0.0701765245776203
-0.0701765245776203
-0.0743592405058812
-0.0637096393704829
-0.0695245518316042
-0.0685233169585069
-0.065790491791519
-0.0601788961882292
-0.0538136694100728
-0.0681842458373045
-0.076171478142502
-0.0698062513642813
-0.065790491791519
-0.0831051365815699
-0.0770267677463535
-0.086265606550473
-0.0818404453343776
-0.0789485901498228
-0.0833346229359241
-0.0772431693524838
-0.0752014453614166
-0.0815666721396101
-0.0829121365443837
-0.0745625573637216
-0.0787321885436683
-0.0815718305499965
-0.0789485901498228
-0.0863855081380287
-0.0733915982076327
-0.0763775629278532
-0.0833346229359241
-0.0789485901498228
-0.0814076421220704
-0.0877206557220254
-0.0877206557220254
-0.0837100545596474
-0.0877206557220254
-0.0877206557220254
-0.0833346229359241
-0.0864899344944544
-0.0796970629143693
-0.0915176232058511
-0.0873998277594036
-0.0833346229359241
-0.0833346229359241
-0.0814622457831435
-0.0789485901498228
-0.0745625573637216
-0.0745625573637216
-0.0711936121265392
-0.0745625573637216
-0.0745625573637216
-0.0771311941028206
-0.0701765245776203
-0.074458508451965
-0.0748284042205914
-0.0762759044989711
-0.0789485901498228
-0.0802342924831456
-0.0768048302851644
-0.0614044590054178
-0.0670789620523318
-0.0745625573637216
-0.0745625573637216
-0.0745597894361731
-0.0741404484168352
-0.0789485901498228
-0.0686222074599395
-0.065790491791519
-0.0745625573637216
-0.0776684236715807
-0.0789485901498228
-0.0762703686438965
-0.0792199728617292
-0.0810840462319286
-0.0789485901498228
-0.0858977238199627
-0.0757303711476079
-0.0759578444638553
-0.0823230712420561
-0.0789485901498228
-0.0789485901498228
-0.0789485901498228
-0.0789485901498228
-0.0789485901498228
-0.0768570434633658
-0.0786332980422356
-0.0877206557220254
-0.0877206557220254
-0.0833346229359241
-0.0801191718612596
-0.0797572024305055
-0.0805468166631843
-0.078567622671063
-0.0722023958929066
-0.0658371691146866
-0.0701765245776203
-0.0701765245776203
-0.0804534620167902
-0.0833346229359241
-0.0756397844287622
-0.082005011206964
-0.0776494256235911
-0.067547748322408
-0.065790491791519
-0.065790491791519
-0.065790491791519
-0.0614044590054178
-0.0651571396488586
-0.0644446499421032
-0.0713795665299717
-0.0727261632687479
-0.0628931007519258
-0.0618950112509718
-0.0682602380291855
-0.0746883722509718
-0.0833346229359241
-0.0793133275081253
-0.0821775034174567
-0.0841270050961003
-0.0733757455318275
-0.0670105187536691
-0.0665496588214864
-0.0783916076438103
-0.0833346229359241
-0.0833346229359241
-0.0790447127237044
-0.0789485901498228
-0.0789485901498228
-0.0789485901498228
-0.0823832107581923
-0.0897762193507013
-0.0964927212942279
-0.0933069625329447
-0.0982994230758092
-0.0838520995673587
-0.100796093699414
-0.0928721462824737
-0.0877206557220254
-0.0877206557220254
-0.0833346229359241
-0.0833346229359241
-0.0754313091605424
-0.0817965359387007
-0.0881617627169214
-0.0896863875211755
-0.0921066885081266
-0.0861287199530475
-0.0789485901498228
-0.0845906329558222
-0.0718601793994048
-0.0756999239448984
-0.0758320295765446
-0.0701765245776203
-0.0701765245776203
-0.075126711318376
-0.087857164874757
-0.0793852936236154
-0.0504027020005158
-0.00458570101217852
0.028791982068843
0.0932544977250653
0.178914934667353
0.319656626009837
0.535174005134064
0.721152061760305
0.870526289964008
0.938792567108013
0.791374760401847
0.421462132548865
0.127239489267538
-0.0280781083986763
-0.119982109122879
-0.154330454059648
-0.166292681914127
-0.197371475374557
-0.192629763902081
-0.188599409802355
-0.171554889575429
-0.150979626166153
-0.109329488430417
-0.0746328878856713
-0.0515444721027537
-0.0451792453245518
-0.0394742950749114
-0.0394742950749114
-0.0348556305622002
-0.0329140552214093
-0.0308972425780217
-0.0263161967166076
-0.022552821807744
-0.0189006672592418
-0.0185944338235675
-0.00877206557220254
-0.0116801508772166
-0.0121556053363537
-0.00438603278610127
-0.00877206557220254
-0.00671926987103803
-0.00841802247932285
-0.00877206557220254
-0.00516772068090769
-0.00318852668878828
-0.00317670008937202
-0.00723234298142612
0.00274905528748435
0.00438603278610127
0.00206462230058076
0.00430060447764065
0.00877206557220254
0.0048991058964874
0.00877206557220254
0.00877206557220254
0.00877206557220254
0.0148074057159337
0.0125472670804737
0.0113620908421433
0.0177273176203043
0.0219301639305063
0.0260717383905775
0.0289674938366177
0.0263161967166076
0.0307022295027089
0.0274159446464873
0.033340567689428
0.0438603278610127
0.0394742950749114
0.0394742950749114
0.0438603278610127
0.0458636783114599
0.0522289050896768
0.0614044590054178
0.0649593586460478
0.0701765245776203
0.0733037794163195
0.0796690061944957
0.0833346229359241
0.0880134269647734
0.0943786537429641
0.100743880521152
0.107109107299337
0.117297848502527
0.124225593641811
0.133986690043087
0.144739081941342
0.153643756404787
0.16723063189896
0.1761364386964
0.184347118241436
0.188599409802355
0.19269153901171
0.199056765789931
0.20908647697552
0.213044864959763
0.222538478910572
0.224517672902689
0.228073704877266
0.225699452139163
0.24799938602333
0.250003868807772
0.258775934379975
0.25484283518813
0.260302194777782
0.25965651277616
0.257677318784092
0.25131209200589
0.244946865227713
0.235931473663465
0.21832833533694
0.197312468192419
0.180380300659828
0.161284620325276
0.142188939990691
0.117339996489804
0.0952255137493572
0.071743800628735
0.052648120294113
0.034064380736018
0.0163516576425748
0.00430173681163607
-0.00825395986634142
-0.0215868151030475
-0.0356097649966848
-0.0474753670177284
-0.0582266265820503
-0.0645918533602106
-0.0701765245776203
-0.0701765245776203
-0.0793015009087071
-0.0786704134340414
-0.0788738561067813
-0.0833346229359241
-0.0833346229359241
-0.0862882532301077
-0.0886506793689286
-0.0864821339714699
-0.0964927212942279
-0.0889637068085098
-0.0990934408295642
-0.0921066885081266
-0.0942797632415615
-0.0923404525687359
-0.0921066885081266
-0.0995559363552649
-0.0964927212942279
-0.103086679537513
-0.10437464653877
-0.100878754080329
-0.0964927212942279
-0.0964927212942279
-0.0965275720180389
-0.100878754080329
-0.0928922766643654
-0.0964927212942279
-0.0964927212942279
-0.0921066885081266
-0.098382586716367
-0.100878754080329
-0.10358905838252
-0.10057528857216
-0.0942100617939694
-0.100630395492818
-0.0946377065959003
-0.0959408971985453
-0.0979200911906227
-0.100878754080329
-0.0964927212942279
-0.0964927212942279
-0.0964927212942279
-0.0964927212942279
-0.0966371567848321
-0.100878754080329
-0.0967759306055525
-0.0938026731889214
-0.0964927212942279
-0.0908383486292547
-0.0909681895929544
-0.0921066885081266
-0.0921066885081266
-0.0881337059970458
-0.0968911770422856
-0.0965073158211324
-0.0921066885081266
-0.0921066885081266
-0.0921066885081266
-0.0956228371634617
-0.0953834114329267
-0.0921066885081266
-0.0877206557220254
-0.0903815147734987
-0.0877206557220254
-0.0899538699715678
-0.0921066885081266
-0.0964927212942279
-0.0964927212942279
-0.0964927212942279
-0.0964927212942279
-0.0886709355657752
-0.0950361623439804
-0.100878754080329
-0.100878754080329
-0.100973744320217
-0.103190602634426
-0.0968253758562659
-0.0953997673682856
-0.104504487502464
-0.0952738266660732
-0.0889085998879129
-0.0877206557220254
-0.0932615433585954
-0.100151544031719
-0.0921066885081266
-0.0921066885081266
-0.0964927212942279
-0.0964927212942279
-0.0964927212942279
-0.0964927212942279
-0.0931665531187315
-0.0904146040888133
-0.0883528755306865
-0.0921066885081266
-0.0921066885081266
-0.0921066885081266
-0.0879437255172138
-0.0894767799189209
-0.0958420066971147
-0.099550274685321
-0.0931850479071646
-0.0955918867011941
-0.0921066885081266
-0.0921066885081266
-0.0896543047249129
-0.0877662007112553
-0.0921066885081266
-0.0961106214815315
-0.098089815473592
-0.100878754080329
-0.0953232719167885
-0.0952553318776659
-0.0972345258697425
-0.100878754080329
-0.0968068810678177
-0.103172107846007
-0.10526478686643
-0.0990130451165786
-0.0964927212942279
-0.108140915190062
-0.107202336130799
-0.101889173440214
-0.10526478686643
-0.109650819652532
-0.107088851102465
-0.100878754080329
-0.103013077828472
-0.10526478686643
-0.106237461760104
-0.100878754080329
-0.11275781829434
-0.106392591516184
-0.109650819652532
-0.109650819652532
-0.10526478686643
-0.10526478686643
-0.100882654341811
-0.107240080597004
-0.105696331929847
-0.103974051937627
-0.106123976731774
-0.103118762333777
-0.106551621533708
-0.104572427541631
-0.100878754080329
-0.10526478686643
-0.10526478686643
-0.109487889373481
-0.107834555939501
-0.109060244571557
-0.111039438563631
-0.110669039535432
-0.100878754080329
-0.103818922181606
-0.105798116173668
-0.107138296353184
-0.10526478686643
-0.10526478686643
-0.101200714376948
-0.102535987775831
-0.112537642241545
-0.108421230758954
-0.108473569752063
-0.11323490834698
-0.109650819652532
-0.109276520362808
-0.107618280148213
-0.113983506926435
-0.11157666813239
-0.114036852438633
-0.108152615974598
-0.10526478686643
-0.108580260776508
-0.108314539734557
-0.116494143002482
-0.10526478686643
-0.10526478686643
-0.107459250130711
-0.109650819652532
-0.0991119356180145
-0.100238733748639
-0.109650819652532
-0.10633245200005
-0.104353258007978
-0.0979880312297679
-0.100878754080329
-0.0984156760316926
-0.10093499333492
-0.101193920373015
-0.100507348533052
-0.109650819652532
-0.109650819652532
-0.10526478686643
-0.102105449231468
-0.0921066885081266
-0.094838381341158
-0.10055390004132
-0.101100817356429
-0.113831270912801
-0.103388383637261
-0.100878754080329
-0.102327512507568
-0.101836834447095
-0.100878754080329
-0.10387906169774
-0.10526478686643
-0.107837449681917
-0.100878754080329
-0.105168790107452
-0.113775031658152
-0.107933446440895
-0.101568219662735
-0.102168482490041
-0.108533709268201
-0.10526478686643
-0.10526478686643
-0.100878754080329
-0.100878754080329
-0.100885548084267
-0.109236762858415
-0.106106488462417
-0.10526478686643
-0.10526478686643
-0.103140150864623
-0.112760712036778
-0.10526478686643
-0.107947034448746
-0.113761443650336
-0.105141614091763
-0.105112550852799
-0.107823861674078
-0.10526478686643
-0.10526478686643
-0.108643294035051
-0.113065184064041
-0.106699957285836
-0.104720763293769
-0.100878754080329
-0.0963763425235016
-0.0921066885081266
-0.0961814552630316
-0.0975428981584868
-0.0921066885081266
-0.0889609388810218
-0.0985456428102375
-0.104452148509359
-0.100878754080329
-0.0961077277390811
-0.0921066885081266
-0.0921066885081266
-0.0959797739986888
-0.108710227555113
-0.111019056551928
-0.108752878801891
-0.109650819652532
-0.106590372519005
-0.108343602973526
-0.0982459517487299
-0.0962667577566466
-0.0899015309784272
-0.0919050072437799
-0.100878754080329
-0.0971220473604994
-0.100878754080329
-0.100878754080329
-0.109650819652532
-0.109650819652532
-0.105759365188431
-0.112124591966587
-0.118422885224734
-0.118422885224734
-0.118422885224734
-0.12119043530063
-0.118422885224734
-0.112846014530352
-0.109650819652532
-0.108887626546175
-0.10526478686643
-0.10526478686643
-0.10526478686643
-0.10526478686643
-0.113425014641709
-0.118422885224734
-0.112577399745975
-0.109650819652532
-0.114036852438633
-0.114036852438633
-0.10466062377763
-0.100878754080329
-0.10526478686643
-0.109576211424399
-0.122306664980711
-0.111510615316513
-0.0712206623274136
-0.027285726238003
0.0207444844325044
0.0902947025015496
0.187302509943907
0.358580480953299
0.581972236428529
0.74601031556314
0.876061893375504
0.89680147102753
0.63832522770948
0.267056315371636
0.0383970680099409
-0.0956448547688856
-0.173196522224872
-0.173441609625316
-0.194702060910753
-0.212505748167653
-0.201899049908867
-0.206854269245116
-0.186490123216787
-0.153823168434096
-0.115631807764904
-0.0813698976559022
-0.0656778874673666
-0.0608497411673377
-0.0544845143891268
-0.0439874008971619
-0.0482463606471139
-0.0482463606471139
-0.0509537712068712
-0.0445885444287148
-0.0382233176504961
-0.0286279194558615
-0.0298788968802144
-0.0235136701020581
-0.0267118845371734
-0.0259524658774593
-0.0132220123210228
-0.0194913681551051
-0.0180037329276954
-0.014677690567079
-0.014045344943525
-0.0076801181653521
-0.00131489138714817
0
-0.00264349659701834
-0.000236657803000867
-0.00438603278610127
-0.00019098699892781
-0.00438603278610127
-0.000618631800848697
0.00136056219126876
0.00772578896942906
0.00877206557220254
0.00877206557220254
0.013663370945723
0.0150596645649268
0.013235726143737
0.0175441311444051
0.0256161626837369
0.0219301639305063
0.0183217929628225
0.0219301639305063
0.0219301639305063
0.027863971460158
0.0350882622888101
0.0354345048586645
0.0417997316368539
0.0438603278610127
0.0394742950749114
0.0394742950749114
0.0438847359491421
0.0560817343833926
0.0591034305316163
0.0748555802362767
0.0651756344373
0.0665925616980733
0.0705509496821967
0.0832814032386288
0.0877206557220254
0.0938454502506049
0.100210677028761
0.103500987961436
0.116231441517757
0.123692390149464
0.132920283058304
0.140353049155241
0.145223091812759
0.153511147513544
0.157525900567213
0.170256354123647
0.184213377016253
0.184213377016253
0.196441703357421
0.209274821861848
0.202481950281718
0.214254449286232
0.214618809199827
0.215081556355314
0.227812009911687
0.230611391154072
0.231901245378653
0.24123180323557
0.24123180323557
0.243631722210811
0.233873519551931
0.231894325559864
0.225529098781653
0.214640071915826
0.199792657065697
0.180696976731216
0.167676645674424
0.151277681634293
0.130920329609787
0.105459422497161
0.0799985153842708
0.0545376082716296
0.0346818802028216
0.0211599251905342
6.37881478096017e-05
-0.00634396406222406
-0.0284576919133719
-0.0425348680232997
-0.0447368801808109
-0.0570429601222926
-0.0763401959063646
-0.065790491791519
-0.0764072552412842
-0.0877206557220254
-0.0899472017825358
-0.100518168613319
-0.0990798528217535
-0.100270816544899
-0.0978639777508766
-0.100878754080329
-0.0999351424256152
-0.0964927212942279
-0.105780753719272
-0.104660497962737
-0.10526478686643
-0.103197270823458
-0.104925464115414
-0.116783013983687
-0.110417787205526
-0.108438593213409
-0.102073366435207
-0.106049368503628
-0.109650819652532
-0.105621723701704
-0.109650819652532
-0.105335494833082
-0.109650819652532
-0.11353849967005
-0.115517693662133
-0.118422885224734
-0.109650819652532
-0.112683210066207
-0.114036852438633
-0.111432106826886
-0.110046633287946
-0.118422885224734
-0.110110295620972
-0.10262821008823
-0.108993436866387
-0.108329008446559
-0.10526478686643
-0.106158953270482
-0.109650819652532
-0.110117341254654
-0.114036852438633
-0.109650819652532
-0.111668890444789
-0.110039587654264
-0.114036852438633
-0.110467232456195
-0.109650819652532
-0.10022489411101
-0.103084163239777
-0.114036852438633
-0.10526478686643
-0.10526478686643
-0.10526478686643
-0.10526478686643
-0.10526478686643
-0.111082215625315
-0.110626262473748
-0.104261035695577
-0.103861699243289
-0.109650819652532
-0.109650819652532
-0.109947742786514
-0.114167574106521
-0.1014371205502
-0.104278775594701
-0.113330024401773
-0.108378453697275
-0.108516346813746
-0.109650819652532
-0.109650819652532
-0.106098939569245
