-0.0653160314953379
-0.0734805354322551
-0.0697963207350039
-0.0626778496043264
-0.0718883863474254
-0.0683522506575567
-0.0653160314953379
-0.0612337795268792
-0.0612337795268792
-0.061733696054529
-0.067306217851375
-0.053513512612116
-0.05645733227239
-0.0576976438370184
-0.05028301469151
-0.0593454724272575
-0.0612337795268792
-0.0694539629691833
-0.0693982834637965
-0.0740823312162396
-0.0733786561758708
-0.067454296858788
-0.0615299375417024
-0.0709442327975919
-0.0700924787498271
-0.0671024593386319
-0.0612337795268792
-0.0653160314953379
-0.0653160314953379
-0.0608819420067231
-0.0571515275584206
-0.0611875797758229
-0.0671119390929361
-0.0621222535714067
-0.0598359092004884
-0.0571515275584206
-0.0571515275584206
-0.0514676467508606
-0.052467479805986
-0.051430926754076
-0.0569477690456521
-0.053069275589962
-0.060845222009996
-0.057938122346517
-0.053069275589962
-0.05431906690893
-0.0633353248936303
-0.0619090153043181
-0.0274361324503239
0.0195050253096276
0.0609755405293746
0.119164820159902
0.213492571723372
0.354419123279951
0.570271479368333
0.767143568874079
0.902698959106847
0.965216851908103
0.823356713165313
0.495803962877464
0.231072457526168
0.0500839398513976
-0.0918590062293181
-0.1242172669003
-0.140917071802975
-0.153773904226093
-0.147849544908992
-0.130899781742626
-0.10999808512701
-0.0788670592045738
-0.0492452626191276
-0.0199385835571565
-0.00816450393691723
-0.000480957018990332
0
0.00344373618775598
0.00696091236900616
0.00408225196845862
0
0
0.00408225196845862
0.00183262759432492
9.47975427181207e-06
0.00408225196845862
0.00408225196845862
0.00553580180017749
0.0114601611172326
0.0163290078738345
0.0163290078738345
0.0244935118107517
0.0244935118107517
0.0283163257611138
0.0223919664440586
0.0243549125576389
0.030279271874696
0.0326580157476689
0.0326580157476689
0.0326580157476689
0.0294831973322812
0.0299084748459625
0.0290851600610736
0.0350095193781623
0.0408225196845862
0.0427759860438664
0.0449047716530448
0.0449047716530448
0.0415072352163451
0.0513018072552116
0.051152529227436
0.053828630135603
0.0597529894527054
0.0653160314953379
0.0653160314953379
0.0653160314953379
0.0712036708156665
0.0698330407317886
0.0734805354322551
0.0799794502907733
0.0826543521786274
0.0914301316537343
0.0985853227812544
0.0996029163246211
0.102269537478506
0.104083205564287
0.105953752175754
0.113535419837242
0.121884722778375
0.127809082095439
0.136834819834401
0.142878818896052
0.14828550119739
0.155588771332241
0.161513130649348
0.171650060454064
0.183701338580638
0.187450712537488
0.19080204922319
0.206002104542944
0.209306042457229
0.21818370118872
0.229319265028314
0.230133100058913
0.22986658032738
0.247092342979538
0.245018037855301
0.251340434443621
0.249017370075976
0.26534757697017
0.270307624208479
0.278556246913585
0.281675385823645
0.281675385823645
0.281675385823645
0.281675385823645
0.281675385823645
0.281675385823645
0.274370916668394
0.259068982092186
0.251886550722251
0.242907012734335
0.222078756112315
0.20430567816101
0.186532600209826
0.166500418130099
0.146885232830336
0.123187795561884
0.095787184087869
0.0772559506112008
0.0594828726600354
0.0509392909603958
0.0390905723262853
0.0272418536920592
0.0128840726657764
0.00381333419609046
-0.00633307536289408
-0.0161998883749933
-0.0180419957235919
-0.0168561646438886
-0.0176439584523843
-0.0235683177694844
-0.0344918423623536
-0.0380634990286078
-0.0367402677161275
-0.0367402677161275
-0.0447839328881172
-0.038859573571034
-0.0405453211783064
-0.0408225196845862
-0.0374155034936148
-0.0379071392872534
-0.04383149860435
-0.0449047716530448
-0.0475157133016013
-0.0486162265928037
-0.0404789628983464
-0.0407952794420731
-0.0449047716530448
-0.0412477971983066
-0.0434879418181106
-0.0408225196845862
-0.0347026825886743
-0.0342975636038571
-0.0354987571310889
-0.0261129011380944
-0.0285757637792103
-0.0285757637792103
-0.0285757637792103
-0.0309912276489679
-0.0285757637792103
-0.0257622626382452
-0.0285757637792103
-0.0244935118107517
-0.0217806909058304
-0.0163290078738345
-0.0209585751412508
-0.0366656287022553
-0.026907776660091
-0.0204112598422931
-0.0244935118107517
-0.0312151446905821
-0.0274550919590994
-0.0304190701481666
-0.0319353811987655
-0.0260110218817101
-0.0244935118107517
-0.0266602164370446
-0.0245669518042639
-0.0262621791658371
-0.0321865384829437
-0.0258345036114547
-0.0236239972748131
-0.0235209189980814
-0.0232259600036002
-0.0285757637792103
-0.0261591008891164
-0.028752282049466
-0.0306393901287882
-0.0285757637792103
-0.0326580157476689
-0.0326580157476689
-0.0326580157476689
-0.0326580157476689
-0.0359157539108859
-0.0299913945937845
-0.0285757637792103
-0.0240385960138564
-0.0244935118107517
-0.0244935118107517
-0.0282061657708179
-0.0285757637792103
-0.0285757637792103
-0.0326580157476689
-0.0297414363300178
-0.0285757637792103
-0.0260572216327665
-0.0288541613058501
-0.0305375108724326
-0.0246131515553209
-0.0285757637792103
-0.0321403387318868
-0.0422559109874013
-0.0335737300346645
-0.031731622686055
-0.0285757637792103
-0.0326580157476689
-0.030287552608632
-0.0288364008176091
-0.0367402677161275
-0.0291112012832271
-0.0301501523758211
-0.029241519802426
-0.0204112598422931
-0.0204112598422931
-0.0211895738964777
-0.0218730904079236
-0.0248737885937234
-0.0285757637792103
-0.0245112722989932
-0.0244935118107517
-0.0208270576017419
-0.0273461309891633
-0.0293895988098664
-0.0193829875242946
-0.0163290078738345
-0.0197810247955023
-0.018801350269222
-0.0204112598422931
-0.0224855649664731
-0.0284099242835841
-0.0285757637792103
-0.0250573885775911
-0.0216894904240585
-0.0244935118107517
-0.0285757637792103
-0.0285757637792103
-0.0321758597083186
-0.0262515003912304
-0.0287440013154964
-0.0328878154825936
-0.0248074303138162
-0.0285757637792103
-0.0285757637792103
-0.0326580157476689
-0.0296857568246896
-0.0285757637792103
-0.0285757637792103
-0.0251616658746876
-0.0326580157476689
-0.0286397240184508
-0.0349621206067708
-0.025417506831659
-0.0231134019726022
-0.0171890426555011
-0.0204112598422931
-0.0175870799267143
-0.0169130431695693
-0.0204112598422931
-0.0165150058983616
-0.0224393652154455
-0.0206232990889733
-0.0244935118107517
-0.0244935118107517
-0.0204112598422931
-0.0234853980216567
-0.0244935118107517
-0.0244935118107517
-0.0212831724188935
-0.0285757637792103
-0.0245693498449262
-0.0307779893819277
-0.0322978974935481
-0.0337762895270596
-0.02525166733608
-0.0285757637792103
-0.0285757637792103
-0.0251794263628706
-0.0285757637792103
-0.0285757637792103
-0.0285757637792103
-0.020631579822888
-0.0262254591690526
-0.0285757637792103
-0.0299096738663034
-0.0263059808761994
-0.0204112598422931
-0.0231892400068151
-0.0244935118107517
-0.0244935118107517
-0.0202714615688223
-0.0183109134959302
-0.0242352728130149
-0.0276612485125167
-0.0292320400481541
-0.0285757637792103
-0.0285757637792103
-0.0244935118107517
-0.0271234129678514
-0.0241037552735087
-0.0226431237281853
-0.0244935118107517
-0.0204112598422931
-0.027763127768856
-0.0271399744357327
-0.0244935118107517
-0.0234557597384816
-0.0204112598422931
-0.0197715450412305
-0.0163290078738345
-0.0206529373721481
-0.0265772966892035
-0.0207239793250015
-0.0180147554810788
-0.0168834048864019
-0.0191235495062563
-0.0163290078738345
-0.0154393348090052
-0.0122467559053758
-0.00767286814329505
-0.00641599511071028
-0.0162354093514198
-0.0122467559053758
-0.0122467559053758
-0.00816450393691723
-0.0115442798853755
-0.00294262063984604
0
-0.00630703414065682
-0.0240801120919654
-0.0363967109298877
-0.0304723516128328
-0.0326035352627
-0.0326580157476689
-0.0326580157476689
-0.0176320806574509
-0.0154784528464396
-0.0163290078738345
-0.0219963272135356
-0.0244935118107517
-0.0244935118107517
-0.0204112598422931
-0.0224488449697173
-0.0206138193347017
-0.0204112598422931
-0.0204112598422931
-0.0310587849492069
-0.0336566497824925
-0.0335014890614541
-0.0340546870536996
-0.0290211998217823
-0.0326580157476689
-0.0367402677161275
-0.0348507615961147
-0.0289264022790597
-0.0311665468988636
-0.0285757637792103
-0.0263889006240137
-0.0262823376946823
-0.0326580157476689
-0.0377330190576431
-0.036145553645762
-0.0307152281629903
-0.0326580157476689
-0.0233514824414929
-0.0234960767962739
-0.029971236064939
-0.0244935118107517
-0.0317126631775115
-0.0285757637792103
-0.032110700448719
-0.0285757637792103
-0.0284264857514679
-0.0264848971871196
-0.0324092565042043
-0.0351469196109733
-0.0154807384787369
0.0299737465138219
0.0712937846854354
0.128749863400763
0.208405915434467
0.322228238348311
0.520131110623003
0.738919979839164
0.889661149556431
0.990513744791225
0.904155431548533
0.598796547068669
0.30929107156348
0.110460832025179
-0.0247685370931791
-0.0793634910795186
-0.0994809909477696
-0.126654088319205
-0.1266966910093
-0.117381876969211
-0.0925341295975678
-0.0723740270394801
-0.0392586974542276
-0.00636619829871457
0.0027412601677366
0.00866561948481104
0.0145899788018993
0.0203081815656068
0.0163290078738345
0.027690886795648
0.0213992151025567
0.0231075192792942
0.0233444007278674
0.0234024782738154
0.0244935118107517
0.027086692971067
0.0330110522881274
0.0345451238270198
0.0326580157476689
0.0408225196845862
0.0444617336511344
0.0408225196845862
0.0408225196845862
0.0388204555336149
0.0383442945959136
0.046110761261601
0.053069275589962
0.0491919811545735
0.053069275589962
0.0491801033596403
0.0588005551689039
0.0612337795268792
0.0571515275584206
0.054058429870514
0.058004480626478
0.0612337795268792
0.0657709472921816
0.0716953066092885
0.0815881608435418
0.0775627874007137
0.081303880623595
0.0816450393691723
0.0749589274658248
0.0716041061275354
0.0805078060811799
0.0809401653085104
0.082656750219232
0.0854204545481761
0.0816450393691723
0.085636090855877
0.0997249541098505
0.102056299211465
0.104762038402738
0.11661075703694
0.1183853070853
0.123979186431431
0.130075267937454
0.131347615825922
0.142878818896052
0.142878818896052
0.150564763854583
0.160810654629312
0.166735013946403
0.177946415820146
0.183701338580638
0.193479349151555
0.197381485788829
0.197174242623374
0.210445673785825
0.212298459908996
0.222294392419993
0.235608538680699
0.242307614991079
0.258122542909988
0.26851651269225
0.280491952784596
0.278251808164792
0.284176167481847
0.286018274830502
0.291942634147557
0.29392214172902
0.303791352781725
0.302622083169962
0.307475567478977
0.313399926796076
0.315242034144686
0.312914173695755
0.302086645665938
0.299733943015142
0.28995244779152
0.286103480210691
0.26240604294235
0.248429737719326
0.227257924311052
0.204719077879921
0.189946698114426
0.16433011644303
0.140632679174621
0.11766027449584
0.103606932218245
0.0858338542670798
0.0680607763157396
0.053936392085342
0.0406791243501505
0.0294073592981079
0.01430798421432
0.0110171231153113
0.0110218067882773
0.00162767006127725
-0.00042887457468439
-0.0102210485728854
-0.0200440598745624
-0.0228350044459967
-0.0169106451289073
-0.0138080676867517
-0.00816450393691723
-0.0244935118107517
-0.0217889716397805
-0.0204112598422931
-0.0227177627420567
-0.028509405499308
-0.0225850461821951
-0.0204112598422931
-0.0260039401681003
-0.0285757637792103
-0.0256059028968928
-0.0285757637792103
-0.0218399674721611
-0.0285757637792103
-0.0323416992039424
-0.0242589159945638
-0.0204112598422931
-0.0244935118107517
-0.020891017840988
-0.0217736091922013
-0.0212890551122012
-0.0213755719209938
-0.0244935118107517
-0.0168952826813276
-0.0204112598422931
-0.0124149934416619
-0.0183393527587454
-0.0165588076087559
-0.00569455958215641
-0.0150733338615765
-0.0134610262478605
-0.0193853855649566
-0.0163290078738345
-0.0163290078738345
-0.0163290078738345
-0.0185893110225416
-0.0203911013134471
-0.0181912737513345
-0.0241156330683899
-0.0189470312360006
-0.0163290078738345
-0.0173951992089194
-0.0204112598422931
-0.00883265800079513
-0.0147570173178501
-0.0206813766349635
-0.022381287669485
-0.0164569283523734
-0.0122467559053758
-0.0122467559053758
-0.00948065353576933
-0.0154050128528691
-0.0163290078738345
-0.0163290078738345
-0.00920465404979133
-0.0210533726839692
-0.0162069700886049
-0.0122467559053758
-0.00844050342289523
-0.0138128637680169
-0.0163290078738345
-0.0163290078738345
-0.0223493637539665
-0.0229534451703224
-0.0163290078738345
-0.0196672677442901
-0.00781854911007389
-0.0121946734609532
-0.0149630614629614
-0.00816450393691723
-0.0175752021318203
-0.00898661970154315
-0.00918449552094564
-0.0122467559053758
-0.00878645824973857
-0.0122467559053758
-0.0124706729469897
-0.0183950322640744
-0.0165031281034282
-0.0122467559053758
-0.00873666143771801
-0.014786655601003
-0.0204112598422931
-0.0195393472656927
-0.0163290078738345
-0.0199373845369059
-0.0163290078738345
-0.0122467559053758
-0.0103288105225481
-0.0119245566683417
-0.00664459582529701
-0.0074442674286756
-0.00520412280887131
-0.0140924603149371
-0.00671683679850598
-0.00513188183560388
-0.0197596672462969
-0.0100788522587814
-0.0161845259274136
-0.0145591414984471
-0.00863478218134041
-0.00816450393691723
-0.00816450393691723
-0.00816450393691723
-0.0109804031185259
-0.0163290078738345
-0.0163290078738345
-0.0165067251643922
-0.0183914352031104
-0.0124670758860257
-0.0147072205058649
-0.0157106506219776
-0.0151052577770776
-0.0183784707961634
-0.0155032950482908
-0.0122467559053758
-0.0122467559053758
-0.0122467559053758
-0.0244935118107517
-0.0207500205472084
-0.0163290078738345
-0.0107730475448113
-0.0114803196460777
-0.0163290078738345
-0.0163290078738345
-0.0156513740556849
-0.0122467559053758
-0.0122467559053758
-0.0122467559053758
-0.0122467559053758
-0.0122467559053758
-0.0122467559053758
-0.0122467559053758
-0.0122467559053758
-0.013174347987292
-0.0163290078738345
-0.0117172010946676
-0.00579284177757854
-0.00829602147641838
-0.0142203807935018
-0.0163290078738345
-0.0122467559053758
-0.00882906093983113
-0.00643735265985782
-0.0092270982110382
-0.00330273889397265
-0.00524324084626115
-0.0200297840390198
-0.0141054247219119
-0.0163124464058952
-0.0122467559053758
-0.0159144091346872
-0.0149014992643269
-0.0122467559053758
-0.00816450393691723
-0.0110360826238145
-0.0163290078738345
-0.0138554664581443
-0.00816450393691723
-0.00816450393691723
-0.00816450393691723
-0.00240478509518439
-0.00351957422192101
-0.00408225196845862
-0.00720378891918055
-0.0122467559053758
-0.0149702555848907
-0.0204112598422931
-0.0180857974339862
-0.0122467559053758
-0.0122467559053758
-0.0122467559053758
-0.0122467559053758
-0.0156182511198645
-0.0174603584685192
-0.0233847177855746
-0.01821131987186
-0.0107399246089908
-0.0119114798531061
-0.0103418873377837
-0.0122467559053758
-0.0122467559053758
-0.0158682093836835
-0.0135663901569316
-0.0178347525581993
-0.01746144508056
-0.00816450393691723
-0.00816450393691723
-0.0105918456015849
-0.0124339529502052
-0.0183583122672894
-0.0126684363581331
-0.0138780230276172
-0.0128556334029616
-0.0134799857564044
-0.0132536706741686
-0.0163290078738345
-0.0136517079453766
-0.0253678224279561
-0.0258202277759166
-0.016368125911223
-0.0204112598422931
-0.0204112598422931
-0.0285757637792103
-0.0252504683157778
-0.0163290078738345
-0.0163290078738345
-0.0129338694777974
-0.0188582287948519
-0.0207003361435067
-0.0244935118107517
-0.0165469298138263
-0.0145958614952321
-0.0158220096326258
-0.0149938987664391
-0.0154239723614131
-0.0103726122330011
-0.0124197895229295
-0.0157899733088542
-0.0122467559053758
-0.0204112598422931
-0.0164450505574967
-0.0160719678963997
-0.0131588731314654
-0.0184460280963676
-0.0180371996423513
-0.00618848100815641
-0.00566023762597497
-0.0148778560827776
-0.0167199634313799
-0.0181781969360984
-0.0122538376190439
-0.0222462854772798
-0.0171392458435848
-0.0136837442691555
-0.0130499121614581
-0.0102424061220605
-0.0220911247561713
-0.0163290078738345
-0.0188120290437958
-0.0124896324555334
-0.0142440239750811
-0.00831966465796991
-0.0122467559053758
-0.0122467559053758
-0.0163290078738345
-0.013197991168854
-0.00727363185178598
-0.00681523140222547
-0.00865733875084842
-0.00991181374279779
-0.00806970639419877
-0.00214534707708763
0
-0.00153886762016392
-0.00070127699969884
0
-0.00298293769755271
-0.00333945889070975
0
0
0
0
0.00178882588393059
0.00408225196845862
-0.00417236583816784
-0.0154796518667421
-0.0132395072468914
-0.0163290078738345
-0.0163290078738345
-0.0138921864548946
-0.00796782713781583
-0.00408225196845862
-0.000201360472106574
0.00652375706040463
0.000599397743313644
0
0
-0.00816450393691723
-0.00816450393691723
-0.00861113899979166
-0.0099580134938539
-9.71955833215802e-05
-0.011945914217547
-0.0163290078738345
-0.0163290078738345
-0.0129942326561308
-0.0122467559053758
-0.0122467559053758
-0.0115501625786831
-0.00816450393691723
-0.00816450393691723
-0.00816450393691723
-0.0121472746896531
-0.00816450393691723
-0.00816450393691723
-0.00408225196845862
-0.00726894817876718
-0.00502880355891805
-0.0109531628760131
-0.00761598961766577
-0.00169163030057642
0
0
0.00383469174529593
0
0
-0.00239301970848804
-0.00816450393691723
-0.0114482833223455
0.00503839572144733
0.0517900708042207
0.0910180433635142
0.142905197342696
0.219140182166495
0.338287354245695
0.534035736913674
0.742065722012266
0.887454465096945
0.985851166996133
0.916513958627519
0.603174057786605
0.30167103525228
0.108620673084499
-0.0258078254103643
-0.07618398899107
-0.0963428925290272
-0.121169169943148
-0.1183853070853
-0.113883547888288
-0.0870042104908505
-0.0633067732225528
-0.0325760702037254
0.000208554593976562
0.0120572732281426
0.0276944838565539
0.0285757637792103
0.0251853090561785
0.0361089460573503
0.0389199367493952
0.0374925405481485
0.0408225196845862
0.0486327880606904
0.0427084287436341
0.0367840694265223
0.0489870236215034
0.0489870236215034
0.0516690072229673
0.0457446479058659
0.0581537586542082
0.0640781179713041
0.0693982834637965
0.0669519822905853
0.0693982834637965
0.067350019561798
0.0692064027459611
0.0759125607699289
0.069988201452838
0.0788149767602858
0.0785507426609633
0.0775627874007137
0.0748665279637126
0.0734805354322551
0.0757787575980491
0.0857272913376309
0.0857272913376309
0.0857272913376309
0.0831471869925513
0.0857272913376309
0.096100015978892
0.0991100815106977
0.094597868355513
0.100522227672567
0.102364335021222
0.103988408021571
0.102056299211465
0.105560510985759
0.113815016384176
0.114303055116841
0.117499231081421
0.119341338430031
0.125265697747127
0.127665799169264
0.137114416381289
0.138636610125277
0.136716379110076
0.146484909926727
0.148565097744238
0.154489457061329
0.156331564409943
0.162255923727039
0.163290078738345
0.17124025779618
0.184111253646726
0.190035612963834
0.195971850075766
0.207820568709991
0.215973194851975
0.22743575400987
0.229390306981221
0.233746272803257
0.239670632120311
0.249677243405883
0.253099622044434
0.262049634157454
0.275614825294024
0.285485235367085
0.289839889760562
0.293387903245299
0.302086645665938
0.305236621879461
0.310251149602855
0.310251149602855
0.314845195893781
0.316061751868674
0.318415653539772
0.320371517939656
0.322497905508231
0.3096599201853
0.298686711188634
0.299767065951022
0.28491645011073
0.263061120190934
0.245288042239768
0.223068997004887
0.203783205064028
0.187886556417464
0.164223441105367
0.14417589657806
0.126402818626878
0.11188159614548
0.0949389146928277
0.0857272913376309
0.0710258411168482
0.0522399657034557
0.0444734990377555
0.0326247804035881
0.0207760617694197
0.0302354701642673
0.0186507608129197
0.0135084250192201
0.00701767848639375
0
0
0
-0.00692310576019829
-0.00816450393691723
-0.00625483928805911
-0.00408225196845862
-0.00967613131456828
-0.0122467559053758
-0.00705091383047416
-0.00703794942349846
-0.0115312030701398
-0.00816450393691723
-0.00848201950094526
-0.0165660017306254
-0.0164095295810147
-0.0122467559053758
-0.00503936992524445
-0.00817289707908786
-0.0131233521549824
-0.011061037233928
-0.0147960229470144
-0.00929945159250845
-0.0163290078738345
-0.00816450393691723
-0.00816450393691723
-0.00816450393691723
-0.00569575860245887
-0.00816450393691723
-0.0069490345741297
-0.00713982867988275
-0.00326481987688472
-0.00531907888043231
-0.00732571429619671
0
-0.00406089441931108
-0.00372692979560402
-0.00816450393691723
-0.00146542762659404
-0.000774716993266907
0.00904458483921495
-0.00290949770398373
0
0
-0.00408225196845862
-0.00408225196845862
-0.000126721458236952
-0.00171538589036071
-0.00408225196845862
-0.00816450393691723
-0.00816450393691723
0
-0.00276141869658258
-0.00408225196845862
-0.00644563339382756
-0.0122467559053758
-0.0102814117512205
-0.00816450393691723
-0.0122467559053758
-0.0156561701369509
-0.00873894707018627
0
-0.00485348430897575
-0.00816450393691723
-0.00445544703776212
-0.00816450393691723
-0.0122219137035246
-0.0122467559053758
-0.0159061284007696
-0.0122467559053758
-0.0122467559053758
-0.0142866266651727
-0.00530120598394892
-0.00408225196845862
-0.00161699128670393
-0.000450232123833436
-0.00816450393691723
-0.00816450393691723
-0.00983369007624556
-0.00873546241741647
-0.0122467559053758
-0.00602024347187123
-0.000873111596902869
-0.00951268985954729
-0.0153788592224542
-0.00816450393691723
-0.0123237929598524
-0.0163290078738345
-0.0200902596255605
-0.0163290078738345
-0.0163290078738345
-0.0163290078738345
-0.0103986534552125
-0.00888953652642531
-0.00711247602916616
-0.00881849457351743
-0.0163290078738345
-0.0123177978582847
-0.00939544815552801
-0.0163290078738345
-0.0122467559053758
-0.00903162043225157
-0.00913949479019108
-0.0122467559053758
-0.0163290078738345
-0.0163290078738345
-0.0122467559053758
-0.014267779564861
-0.024055269890057
-0.0285757637792103
-0.0285757637792103
-0.0257184609278096
-0.0285757637792103
-0.0204112598422931
-0.0230802790367813
-0.0244935118107517
-0.0267644937340329
-0.0244935118107517
-0.0263664564628249
-0.0285757637792103
-0.0271008563983442
-0.0278105265402146
-0.0305042755283509
-0.0244935118107517
-0.0278969309407593
-0.0270144519977986
-0.0326580157476689
-0.0326580157476689
-0.0366230260121619
-0.0350154020714948
-0.0290910427543887
-0.0313311873742432
-0.0254068280571428
-0.0213400509445108
-0.0244935118107517
-0.0280450099481996
-0.0244935118107517
-0.0284430472194076
-0.0244935118107517
-0.0244935118107517
-0.0301525504164251
-0.0292391217618218
-0.0285757637792103
-0.0285757637792103
-0.0237127997159624
-0.0204112598422931
-0.0285757637792103
-0.0263509816069862
-0.0244935118107517
-0.0204112598422931
-0.0240801120919069
-0.0259222194405617
-0.0285757637792103
-0.0255241821693546
-0.0285757637792103
-0.0292083968666053
-0.0351327561836949
-0.0326580157476689
-0.0326580157476689
-0.0287392052342304
-0.0295295094915533
-0.0367402677161275
-0.0285757637792103
-0.0316984997502347
-0.0285757637792103
-0.0285757637792103
-0.0240089577307912
-0.0250645826995118
-0.0366537509073797
-0.0288007674328662
-0.0244935118107517
-0.0219418467284874
-0.0312389002803338
-0.0315254661326826
-0.0285757637792103
-0.02522802415453
-0.0234225243944583
-0.0166654829464066
-0.0225898422634611
-0.0244935118107517
-0.0204112598422931
-0.0240339123409023
-0.0285757637792103
-0.0253511485518147
-0.0244935118107517
-0.0273200897669346
-0.0279893304428715
-0.0244935118107517
-0.0244935118107517
-0.0204325049832387
-0.0202016186362169
-0.0171463275572055
-0.0122467559053758
-0.0187978656164947
-0.0244935118107517
-0.0204112598422931
-0.0230897587910534
-0.0208496141711969
-0.0244935118107517
-0.0203709427846011
-0.0144465834674892
-0.0122467559053758
-0.0233800341125676
-0.0285757637792103
-0.0255798616746819
-0.0285757637792103
-0.0285757637792103
-0.0285757637792103
-0.0326580157476689
-0.0326580157476689
-0.0326580157476689
-0.0303101091781143
-0.0290815630001165
-0.0217475679699909
-0.0244935118107517
-0.0276374929227205
-0.0244935118107517
-0.0285757637792103
-0.0285757637792103
-0.0244935118107517
-0.0264778154734514
-0.0285757637792103
-0.0285757637792103
-0.0285757637792103
-0.0256817409310251
-0.0316061002481207
-0.0318678238986083
-0.0285757637792103
-0.0281836092013633
-0.0244935118107517
-0.0204171425356596
-0.0322482130897886
-0.0293836037083557
-0.0244935118107517
-0.0212132170780738
-0.0214514099551672
-0.0273757692722226
-0.0163290078738345
-0.0188132280641327
-0.0204112598422931
-0.0162388940041222
-0.0161750461730864
-0.0146408622259626
-0.00871650290887323
-0.00408225196845862
-0.00721446769375417
-0.0154369367683881
-0.00951257745128828
-0.0127407897396086
-0.0186651490567159
-0.020219266716253
-0.0122467559053758
-0.00468633338483726
-0.00870245188985499
-0.0230933558519589
-0.0378822970853859
-0.0408225196845862
-0.0467550473273522
-0.0315680688228314
-0.0326580157476689
-0.0282818913967887
-0.0204633422866585
-0.0145389829696023
-0.0122467559053758
-0.0218032474753181
-0.0180253218474161
-0.0132407062671929
-0.0220011232947446
-0.0238975987201408
-0.0228492802815345
-0.0281800121404044
-0.0183712766742653
-0.0240931889071435
-0.0285757637792103
-0.0250917105337638
-0.027331855153608
-0.0275795277849911
-0.0285757637792103
-0.0312637424822418
-0.0322101816644929
-0.0308657052110338
-0.0327078125596322
-0.0367402677161275
-0.0330062562069144
-0.0311641488582596
-0.0219038153031981
-0.025589341428954
-0.0285757637792103
-0.027877971432216
-0.0244935118107517
-0.0241937567349645
-0.0204112598422931
-0.0164272900692566
-0.0163290078738345
-0.0163290078738345
-0.023102835606231
-0.0253878685485993
0.0085297554968488
0.0534794154725119
0.0906747113936243
0.151169407311974
0.24010748767423
0.390381226819762
0.602976069560069
0.780377006080725
0.924096787841913
0.976417012966351
0.79908640647909
0.457251488381976
0.202661184345375
0.0339947360385595
-0.0487694389061168
-0.0816594276127947
-0.109048273700374
-0.137218806086387
-0.130371313544075
-0.112598235592911
-0.0989074096100296
-0.0753508572273748
-0.0362613715130188
-0.00476565607177096
0.00841805926164745
0.0143424185787037
0.0123912378518548
0.0139443813075199
0.0198687406246092
0.0191116717113627
0.0163290078738345
0.0204112598422931
0.0231549180506527
0.0280722501907063
0.0291847536850569
0.0407170433672939
0.0328451003842383
0.0323654547937517
0.0270262173844737
0.0312768192974203
0.037891776839658
0.0378289032124598
0.0341649594523139
0.0460136780864247
0.0449047716530448
0.0471023135827561
0.0489870236215034
0.046704276311549
0.0562702476358089
0.0557500601711235
0.0563128503259011
0.0571515275584206
0.0571515275584206
0.0524638827450799
0.051434523815017
0.053069275589962
0.055118738512262
0.0610430978293472
0.0612337795268792
0.0647273125265978
0.0665694198752115
0.0693982834637965
0.0775627874007137
0.0802602458580172
0.0861846051750782
0.087510122119994
0.089868819872325
0.0938917952745482
0.0938917952745482
0.0913128899497701
0.0972372492668255
0.0968687378705324
0.0997866287166904
0.110220803148383
0.110220803148383
0.1146122899469
0.120536649263955
0.122467559053758
0.130056420837113
0.13830972721523
0.145589354168534
0.154240697817852
0.160165057134918
0.166089416452013
0.172572968862912
0.184421687497091
0.192026998340173
0.195948094486014
0.203638835525753
0.219569806128368
0.227971191513886
0.235102739459777
0.246951458093966
0.25637272265529
0.255750880750681
0.262086354154133
0.271681851353308
0.277593133855186
0.277593133855186
0.288685008392473
0.302086645665938
0.302086645665938
0.307228007255813
0.310251149602855
0.310251149602855
0.307747969904049
0.306168897634396
0.304063755206797
0.294192146113434
0.284718574291313
0.270494708845092
0.261419174294261
0.246797271576781
0.229044239746185
0.208099940440414
0.189813869146479
0.166116431878124
0.142533950681361
0.122803809309809
0.0991063720415875
0.0851324648590662
0.0673593869078946
0.0559905386806181
0.0410568906843721
0.0204112598422931
0.0178062008871027
0.00816450393691723
0.00375046056895053
0
-0.00180898441277628
-0.0113844354913085
-0.0218222069838623
-0.0244935118107517
-0.0244935118107517
-0.0244935118107517
-0.025108384409905
-0.0285757637792103
-0.0285757637792103
-0.0265168211026381
-0.0283945618359494
-0.0343189211530284
-0.0332372549621369
-0.0326580157476689
-0.0357629912304507
-0.0326580157476689
-0.0353649539592436
-0.0290425573709298
-0.0372758176284042
-0.0406850070435726
-0.0307471520785084
-0.0285757637792103
-0.0326580157476689
-0.0360129494942174
-0.0367402677161275
-0.0367402677161275
-0.0292925156347479
-0.0326580157476689
-0.0364215531317971
-0.0348188376805962
-0.0367402677161275
-0.0326580157476689
-0.0326580157476689
-0.0326580157476689
-0.0294511610085135
-0.0285757637792103
-0.0285757637792103
-0.0285757637792103
-0.0309865439759385
-0.0323167445938888
-0.0224807688852363
-0.0242661101164329
-0.0318051750878158
-0.0367402677161275
-0.0355235993330394
-0.0295992400159433
-0.0326580157476689
-0.0299972772871503
-0.0285757637792103
-0.0308384649685218
-0.0285757637792103
-0.0304404276973148
-0.0289512444809677
-0.0300423904261077
-0.0293492817521766
-0.0255621011864402
-0.0314864605034956
-0.0326580157476689
-0.0351706752007471
-0.0405500048513118
-0.0325110233523889
-0.0285757637792103
-0.0251425939578822
-0.0239699521016027
-0.0285757637792103
-0.0285757637792103
-0.0294962741474715
-0.0326580157476689
-0.0326580157476689
-0.0350225961933403
-0.0364913960644561
-0.0285757637792103
-0.0247671132561248
-0.0285757637792103
-0.0285757637792103
-0.0326580157476689
-0.0326580157476689
-0.0367402677161275
-0.0367402677161275
-0.0371146618057862
-0.0386060182463307
-0.0326816589292177
-0.0367402677161275
-0.0367402677161275
-0.0367402677161275
-0.0367402677161275
-0.0367402677161275
-0.0367402677161275
-0.0285757637792103
-0.0310422234812675
-0.0328843308298872
-0.038808690146972
-0.0408225196845862
-0.0367402677161275
-0.0402527602243885
-0.0408225196845862
-0.0345936092104785
-0.0335323263648734
-0.0394566856819743
-0.0362639943701358
-0.0372947771369484
-0.0449047716530448
-0.0449047716530448
-0.0411423208810154
-0.0489870236215034
-0.0456226101206829
-0.0437805027720281
-0.0437888959141996
-0.0482607920116938
-0.039768093736232
-0.0408225196845862
-0.0408225196845862
-0.0448349287204393
-0.0431325072370544
-0.0408225196845862
-0.0449047716530448
-0.0416884371596189
-0.0449047716530448
-0.0392681772086186
-0.037896572920866
-0.0449047716530448
-0.0408225196845862
-0.0428447423643738
-0.0449047716530448
-0.0408225196845862
-0.044288812441791
-0.0420486678219466
-0.0449047716530448
-0.0399944088184385
-0.0394104859309182
-0.0367402677161275
-0.0390124486597112
-0.0408545560083066
-0.0467789153254195
-0.0489870236215034
-0.053069275589962
-0.0497510618401976
-0.0449047716530448
-0.0478249481316021
-0.0489870236215034
-0.054031302036204
-0.0571515275584206
-0.059275629494562
-0.0572675702420829
-0.0554254628934863
-0.053069275589962
-0.0543973029836893
-0.0603216623007897
-0.0543615571908601
-0.0449047716530448
-0.0571515275584206
-0.0571515275584206
-0.05320319117007
-0.0591275504871815
-0.0612337795268792
-0.0571515275584206
-0.0571515275584206
-0.0571515275584206
-0.0571515275584206
-0.0563696164433297
-0.0504452571262274
-0.0497547713093649
-0.0549255463658931
-0.0490011870487818
-0.050814967542822
-0.0493992243199945
-0.0489870236215034
-0.0457150096227486
-0.0418543890634906
-0.0420307949255027
-0.0427240160076784
-0.0481173966773033
-0.0374476522255986
-0.0510649258066182
-0.0491492660562219
-0.0384201326300296
-0.0443444919471192
-0.0489870236215034
-0.0458630886301775
-0.0408225196845862
-0.0408225196845862
-0.0453905247533087
-0.0489870236215034
-0.0449047716530448
-0.0449047716530448
-0.0449047716530448
-0.0449047716530448
-0.0449047716530448
-0.0501207722567922
-0.0560451315738475
-0.0556801048302572
-0.0464092049088249
-0.0449047716530448
-0.0427249902115734
-0.0448444084747097
-0.0454235352809784
-0.0444463712034969
-0.0394388127855307
-0.0464177104592217
-0.0458904412808931
-0.054642577574474
-0.0489870236215034
-0.0538465030320486
-0.0528796805045278
-0.0469553211874453
-0.0410309618703608
-0.0432711064901995
-0.0442982921960631
-0.0489870236215034
-0.0489870236215034
-0.0498246142419233
-0.053069275589962
-0.0485474702722963
-0.0449047716530448
-0.0449462877310374
-0.0489870236215034
-0.052712754396747
-0.053069275589962
-0.0563969690939985
-0.056063978674188
-0.053069275589962
-0.0557725043323731
-0.0489870236215034
-0.053069275589962
-0.053069275589962
-0.053069275589962
-0.053069275589962
-0.056646927357816
-0.053069275589962
-0.0498896610933207
-0.0499264934982957
-0.0558508528153888
-0.0525278429843786
-0.0513705635757192
-0.0570081322240443
-0.053069275589962
-0.053069275589962
-0.053069275589962
-0.0496397028295412
-0.0501764517621185
-0.053069275589962
-0.0424053014233124
-0.0542540200575131
-0.0485936700233006
-0.0516111544934381
-0.0612290958538152
-0.0589889512340131
-0.0538747174783998
-0.0545086619943456
-0.0571515275584206
-0.053069275589962
-0.0501858191081477
-0.0427524552704892
-0.053069275589962
-0.053069275589962
-0.050981893650575
-0.0568460021975313
-0.0595444348587049
-0.0571515275584206
-0.0545689127644975
-0.0489870236215034
-0.0521760054642132
-0.0462516461471143
-0.0458952373621134
-0.053069275589962
-0.053069275589962
-0.053069275589962
-0.0492878653093903
-0.0433635059922769
-0.0442058926939508
-0.0501302520110624
-0.0590399470662772
-0.0686530923454445
-0.0653160314953379
-0.0612337795268792
-0.0612337795268792
-0.0612337795268792
-0.0535690797093551
-0.0453536923483204
-0.0408225196845862
-0.0505284016904915
-0.0520741262078416
-0.0461497668907459
-0.0455018837639563
-0.0514262430810482
-0.053069275589962
-0.0510280934016318
-0.0489870236215034
-0.0514261306728445
-0.0489870236215034
-0.0546613122666146
-0.0458998086269615
-0.0489870236215034
-0.0516762013448364
-0.0489870236215034
-0.0535693045257553
-0.0571005317261558
-0.053069275589962
-0.0455988545309307
-0.043409705743333
-0.0374853464262794
-0.0419195483230891
-0.0449047716530448
-0.041521511051882
-0.0474458703689374
-0.0489870236215034
-0.0532731465108745
-0.0571515275584206
-0.0513242514164853
-0.0453998920993772
-0.0516809974260462
-0.0603406218093323
-0.0514578297720346
-0.0103295599100773
0.0283498983297399
0.0722134332578663
0.13700744128886
0.237842725668757
0.396788079400588
0.607885458190377
0.77931594805152
0.905031203473059
0.926836586702971
0.698199002186283
0.357956907621275
0.131599485026755
-0.0140781095411165
-0.102075483536298
-0.1183853070853
-0.140519371756372
-0.158943480262378
-0.147752349325718
-0.13354242249035
-0.10970649837704
-0.0934045059293286
-0.0519339907096928
-0.0278115007441123
-0.012135284486516
-0.0121034729792014
-0.00816450393691723
-0.00462357216584009
-0.00538303911969058
-0.00816450393691723
-0.00816450393691723
-0.00541964670825604
-0.000504712608806515
-0.00173543201100268
0.00397557663086483
0
0
0.0056329973834986
0.00816450393691723
0.00523496011228972
0.0111593194293469
0.0130014267779999
0.0189257860950553
0.0126033895067946
0.0185277488238482
0.0123295632449573
0.0140474595841807
0.0199718189012897
0.0163290078738345
0.0228185553863158
0.0254981409471442
0.0314225002642382
0.0314448320173017
0.0269422110245669
0.0328665703416455
0.0367402677161275
0.0328474984248994
0.0391698950131982
0.0367402677161275
0.0408225196845862
0.0408225196845862
0.0489870236215034
0.0489870236215034
0.0535277884477118
0.0594521477648168
0.0571515275584206
0.0552489446232297
0.0568139658737479
0.064242870854847
0.0727449364763753
0.0693982834637965
0.0723468992051701
0.074189006553823
0.075012208930549
0.078183655101439
0.0878798325365886
0.0898095433060896
0.0956462992022969
0.101570658519405
0.108851484493011
0.117501629122025
0.116219913887514
0.128068632521701
0.135835099187389
0.142878818896052
0.147285780550351
0.159134499184519
0.167136648278515
0.178749684484386
0.187149870849603
0.19549100546491
0.207163093420687
0.213897803115659
0.223094064023314
0.229843049553761
0.240852866139058
0.240881417810019
0.25087375326011
0.256798112577217
0.260098565838748
0.271947284472856
0.274571190528446
0.274690717864827
0.274835424627751
0.276666628385427
0.273510881886727
0.273510881886727
0.269562433090171
0.262972430158068
0.261795966424461
0.245086569359463
0.230465865662319
0.221787169362344
0.198505417445182
0.18267295385448
0.166111635796823
0.142298043436722
0.114634509291682
0.0947374418125818
0.0794863906603827
0.0625936184279788
0.046662647825297
0.0348139291911863
0.0140365559931462
0.00147599399296575
-0.00853061729260627
-0.0144549766096616
-0.0244296639797147
-0.0285757637792103
-0.0322280545609359
-0.0381524138779992
-0.044076773195099
-0.0469329894343703
-0.0559254918292603
-0.0489870236215034
-0.0539033815576782
-0.0528512412417152
-0.0489870236215034
-0.0567915217125001
-0.0595716751012191
-0.0536473157841275
-0.0489870236215034
-0.0520931981245876
-0.0554194677919476
-0.0516951608533806
-0.0526012829779401
-0.0512971235821717
-0.0572214828992299
-0.0612337795268792
-0.0574796094888213
-0.0556375021401647
-0.0564254083568129
-0.0560355394113736
-0.053069275589962
-0.053787226465802
-0.0545914693339839
-0.0533891891945931
-0.0571515275584206
-0.0571515275584206
-0.053069275589962
-0.053069275589962
-0.0585174739692362
-0.0612337795268792
-0.056183618418814
-0.0502592591017186
-0.0571515275584206
-0.05473954834139
-0.0491588582186941
-0.0550832175357799
-0.0610075768528629
-0.0514533709153586
-0.0559030476679774
-0.0547157927516393
-0.0489870236215034
-0.0489870236215034
-0.0516489611023244
-0.0494088164824686
-0.053069275589962
-0.0448810160632923
-0.0426883826229913
-0.0486127419400466
-0.0545371012571619
-0.0538415945426258
-0.0479172352255124
-0.0478166673976739
-0.0489870236215034
-0.0489870236215034
-0.0487133097679284
-0.0449047716530448
-0.0449047716530448
-0.0449047716530448
-0.0484646629326568
-0.047667276961727
-0.0480666256614572
-0.0521475662013983
-0.0489870236215034
-0.0495106957388543
-0.0554350550559585
-0.0570258927122842
-0.0511015333951708
-0.0451771740781172
-0.0496138864237917
-0.0571515275584206
-0.0489870236215034
-0.0520007986224754
-0.053069275589962
-0.055685013319727
-0.053069275589962
-0.053069275589962
-0.053069275589962
-0.0508066868088524
-0.0640545871979554
-0.0651334057153653
-0.0506240610288505
-0.0540928642348969
-0.0514201355712796
-0.0496125749952312
-0.053069275589962
-0.0528417614874431
-0.0510566450726503
-0.0608927331895029
-0.0612337795268792
-0.0612337795268792
-0.0653160314953379
-0.0653160314953379
-0.0653160314953379
-0.0625984145091886
-0.0626661966257618
-0.0734805354322551
-0.0653954665904175
-0.0713198259075316
-0.069716885639925
-0.0693982834637965
-0.0693982834637965
-0.0653160314953379
-0.0653160314953379
-0.0667708927555584
-0.0709109974535463
-0.0653160314953379
-0.0631445307878379
-0.0652473875830348
-0.0653160314953379
-0.0653160314953379
-0.0680228572987125
-0.0620984979816096
-0.0662934203892166
-0.0693982834637965
-0.0699776350864682
-0.0734805354322551
-0.0736618497837179
-0.0735159440005334
-0.0655327544150821
-0.0669414159242135
-0.0659307916862874
-0.0653160314953379
-0.0683854860016381
-0.0685689735773482
-0.0626446142602447
-0.0620963247573541
-0.0671249034999123
-0.061300250214925
-0.0712736261564737
-0.0660456353497072
-0.0653160314953379
-0.0653160314953379
-0.0683190153135334
-0.0653160314953379
-0.0700795143428506
-0.0734805354322551
-0.0734805354322551
-0.0734805354322551
-0.0734805354322551
-0.0769350628027286
-0.0780756683352881
-0.0748097618463019
-0.0775627874007137
-0.0734805354322551
-0.0762538319237121
-0.0775627874007137
-0.0728122689601766
-0.0695333980642051
-0.0734805354322551
-0.0772998647299133
-0.0759836027228593
-0.0700592434058057
-0.0682171360571492
-0.0683392862505819
-0.0734805354322551
-0.0734805354322551
-0.0775627874007137
-0.0731084269750575
-0.0693982834637965
-0.0798158964275513
-0.0702202868201737
-0.0749116411026691
-0.0710163613625992
-0.074513603831462
-0.0718124359050282
-0.0734805354322551
-0.0710033969556233
-0.0693982834637965
-0.0693982834637965
-0.073319492017839
-0.0693982834637965
-0.0729214547466319
-0.0665990581583279
-0.0756485514870532
-0.0734805354322551
-0.0734805354322551
-0.0734805354322551
-0.0734805354322551
-0.0733916205829033
-0.0693982834637965
-0.0693982834637965
-0.0693982834637965
-0.0693982834637965
-0.0705332311193877
-0.0734805354322551
-0.0701351938481788
-0.0734805354322551
-0.0697371565769717
-0.0734805354322551
-0.0734805354322551
-0.0775627874007137
-0.0739377368615005
-0.0789476933200698
-0.0816450393691723
-0.0724936667841043
-0.0693982834637965
-0.07697395602377
-0.0759114741578302
-0.0692074893580616
-0.0673489329496984
-0.0732732922667829
-0.0718456712491073
-0.0659213119320171
-0.0731087641995962
-0.0847239736297446
-0.0784015770414342
-0.0789641423798089
-0.0698390358333061
-0.0711976757140988
-0.0653160314953379
-0.0690856763892327
-0.0697536056367091
-0.0679114982880543
-0.0653160314953379
-0.0653160314953379
-0.0653160314953379
-0.0619244901602055
-0.0653160314953379
-0.0734805354322551
-0.0692109740108233
-0.0732698076140799
-0.0641880531452699
-0.0571515275584206
-0.0721418292639361
-0.0662174699468399
-0.0693982834637965
-0.0693982834637965
-0.0699409150896918
-0.0734805354322551
-0.0733359410775763
-0.0693982834637965
-0.0732270925157268
-0.0669046959274643
-0.0728290552445179
-0.0665066586562573
-0.0754637524828288
-0.0726879455425446
-0.0720329807021038
-0.0767736821637068
-0.0693982834637965
-0.0693982834637965
-0.0612337795268792
-0.0649145095714215
-0.0612337795268792
-0.0612337795268792
-0.0653160314953379
-0.0653160314953379
-0.0693982834637965
-0.0693982834637965
-0.0653160314953379
-0.0674046124550274
-0.0654675951554837
-0.0710888271522732
-0.0699478843951476
-0.0693982834637965
-0.0631290559319956
-0.0630227178189783
-0.0666617069691049
-0.0643231677456607
-0.0594900667819051
-0.0652176368917138
-0.0592932775746036
-0.0533689182575464
-0.0489870236215034
-0.055756167680834
-0.0571515275584206
-0.0571515275584206
-0.0612337795268792
-0.0612337795268792
-0.0608854266594319
-0.0527706071263324
-0.0489870236215034
-0.0625287963929317
-0.0766673440507674
-0.078856268021916
-0.0702440424099842
-0.0734805354322551
-0.0763189911833133
-0.0722839131698271
-0.0604351945356506
-0.0573518014184276
-0.0591913983182465
-0.0610360161156773
-0.0636716875579179
-0.0612337795268792
-0.0653160314953379
-0.0684044455101822
-0.0644677621003451
-0.0639241562705147
-0.0657662636191197
-0.0693982834637965
-0.0694504783163638
-0.0734805354322551
-0.0809533545318913
-0.0775627874007137
-0.0775627874007137
-0.0764645597419065
-0.0734805354322551
-0.0727803450446568
-0.0693982834637965
-0.0693982834637965
-0.0693982834637965
-0.0693982834637965
-0.0676520602700156
-0.0653160314953379
-0.0653160314953379
-0.068506324766552
-0.0703484321151633
-0.0706882794322537
-0.0693982834637965
-0.0670040647349838
-0.0693982834637965
-0.0713944649213724
-0.0811571130446562
-0.0598094183454052
-0.0208230109080903
0.0218476112265654
0.0692424857633507
0.149151568550821
0.271655098213294
0.463592881950301
0.661146839314754
0.804323539817716
0.895089189406337
0.825075321423896
0.51426925023647
0.209510250600646
0.032954885680146
-0.083046431818322
-0.130632062990676
-0.130632062990676
-0.16354603210368
-0.16317620927888
-0.159207826769886
-0.141861000536263
-0.124087922584996
-0.0916404098391899
-0.0536778158629429
-0.0430968738524014
-0.0312481552182003
-0.0239876001816427
-0.0180632408645365
-0.0163290078738345
-0.0163290078738345
-0.01253691881869
-0.00816450393691723
-0.0115585557208546
-0.00816450393691723
-0.0051684894241851
-0.00408225196845862
-0.00668022920998186
-0.00336658672502343
0.00188231199814244
0
0.00408225196845862
0.00408225196845862
0
0.00649194555308623
0.0122467559053758
0.0122467559053758
0.0128545467908619
0.0163290078738345
0.0161192542595555
0.0122467559053758
0.0200346925284333
0.0228396881190595
0.0169153288019714
0.0122467559053758
0.0184425434436051
0.0285757637792103
0.0285757637792103
0.0326580157476689
0.0349598349743694
0.0367402677161275
0.0367402677161275
0.0404861570202159
0.0393167750002998
0.0400881197490088
0.0449047716530448
0.0449047716530448
0.0496966937633738
0.053069275589962
0.0562166289464362
0.0492122520915649
0.0650568182936974
0.0612337795268792
0.0612337795268792
0.0721136148174847
0.0775627874007137
0.0835642961804428
0.0926112790603632
0.0909327255749495
0.105185142692184
0.110220803148383
0.112226464360231
0.118150823677314
0.122467559053758
0.12936702163229
0.140006153597014
0.14593051291411
0.153477971027733
0.165943735485196
0.172281606929249
0.179619086612179
0.183747763148159
0.197805676690449
0.196330656901387
0.202949436320929
0.221401459518878
0.228606110233683
0.231509725244342
0.253763092435248
0.257181874012893
0.257447307132498
0.265479206917819
0.269428629918269
0.271138133115288
0.273510881886727
0.274822347812534
0.274439560580743
0.268515201263677
0.268101913953046
0.272480099119965
0.260631380485756
0.252747559707929
0.236933943217419
0.221283655773892
0.210715678170234
0.197984255776761
0.179047790907015
0.155350353638801
0.143899672275716
0.120202235007494
0.0965047977390481
0.0728073604708193
0.0531614502756101
0.0412820067462861
0.0294332881120714
0.0149156626916622
0.00899130337456053
-0.0040612316438609
-0.0163290078738345
-0.00878177457667539
-0.017165511882152
-0.0290142305163089
-0.0408629491504818
-0.0449047716530448
-0.0465680750990074
-0.0489870236215034
-0.0461700378277947
-0.0552017706682768
-0.058018756461956
-0.0585244432746996
-0.0535384672222865
-0.0594628265393914
-0.0611626251657676
-0.0571515275584206
-0.0609068966167811
-0.0571515275584206
-0.0571515275584206
-0.0571515275584206
-0.0630701165903096
-0.0605146296307368
-0.0571515275584206
-0.0571515275584206
-0.0593147475319528
-0.0612337795268792
-0.059468596824556
-0.0607588176093937
-0.0598666340957631
-0.0603607803381792
-0.0602646713669719
-0.0599627430669665
-0.0600916377494752
-0.053069275589962
-0.0571515275584206
-0.0571515275584206
-0.0532942792436759
-0.0587686312533265
-0.0612337795268792
-0.053069275589962
-0.053069275589962
-0.053069275589962
-0.0504061390888385
-0.0494100155027692
-0.053069275589962
-0.053069275589962
-0.053069275589962
-0.053069275589962
-0.0489870236215034
-0.0522981556576477
-0.0571515275584206
-0.0542384327934909
-0.053069275589962
-0.050554218096245
-0.0451796845269222
-0.0489870236215034
-0.0489870236215034
-0.050706006572795
-0.053069275589962
-0.0503079693015823
-0.0499062225612472
-0.0562286191495563
-0.0447742283174386
-0.0454296427906982
-0.0537209805941012
-0.0529424417235213
-0.0489870236215034
-0.0489870236215034
-0.053069275589962
-0.0496562642974805
-0.0501598902941811
-0.053069275589962
-0.0522944461884932
-0.0489870236215034
-0.0534460677202238
-0.0615893265161377
-0.0653160314953379
-0.0612337795268792
-0.057570809970579
-0.0585743524948632
-0.0612337795268792
-0.0571515275584206
-0.0600184225722936
-0.0571515275584206
-0.0596203853010809
-0.0612337795268792
-0.0591629590554299
-0.0571515275584206
-0.0604970939588903
-0.0688309220442019
-0.0640412855663158
-0.0581169262492205
-0.0653160314953379
-0.0625972154888862
-0.0612337795268792
-0.0612337795268792
-0.0693982834637965
-0.065552800535725
-0.0612337795268792
-0.0678735792709678
-0.0619492199539124
-0.0653160314953379
-0.0623472572251213
-0.0612337795268792
-0.0638045165258905
-0.0693982834637965
-0.0672255837359941
-0.0653160314953379
-0.0630084419834746
-0.0616992616900944
-0.0612337795268792
-0.0612337795268792
-0.0703768713779759
-0.0706598401694389
-0.0653160314953379
-0.0701613474785449
-0.069033256720266
-0.0632584002472682
-0.0653160314953379
-0.0612337795268792
-0.0577650887290713
-0.0583800737363859
-0.0612337795268792
-0.0644855225885871
-0.0585611632714837
-0.0653160314953379
-0.0630414525111512
-0.0612682138912639
-0.0653160314953379
-0.0653160314953379
-0.0667945359371086
-0.0693982834637965
-0.0601533123563138
-0.0629966765967415
-0.0721156756335383
-0.0653160314953379
-0.0653160314953379
-0.0674425314721144
-0.0733668907891975
-0.0635875687897741
-0.0648043495810733
-0.06797688236404
-0.076653068215242
-0.0603013913637427
-0.0599260230701987
-0.0658503823872635
-0.0693982834637965
-0.0692619698430854
-0.0653160314953379
-0.0653160314953379
-0.0693982834637965
-0.0693982834637965
-0.0629513386414383
-0.0601759813339654
-0.0620180886826201
-0.0653160314953379
-0.0620063232959469
-0.0671699042306659
-0.0612455449135545
-0.0594034375649557
-0.0608239768689931
-0.0612337795268792
-0.0612337795268792
-0.0663502989148472
-0.0665219086956513
-0.0700345136120988
-0.0685238604383901
-0.0693982834637965
-0.065237683012357
-0.0612337795268792
-0.0595515165723722
-0.0571515275584206
-0.0489870236215034
-0.0489870236215034
-0.0507594004456629
-0.0626081190798645
-0.0607456283860122
-0.0571515275584206
-0.0612337795268792
-0.0593015583085714
-0.0533771989915161
-0.0520553915157012
-0.0605278188541163
-0.0519331289140684
-0.0579217856949692
-0.0597575607175097
-0.053069275589962
-0.0527292034564843
-0.0511692031035779
-0.0490449887592354
-0.0507711658323708
-0.0494430260304463
-0.0476009186818449
-0.0416765593647418
-0.0479989559530519
-0.0449047716530448
-0.0483969932242572
-0.0473369093989205
-0.053069275589962
-0.0551033760646232
-0.0532753197351318
-0.0473509604180531
-0.0449047716530448
-0.0502250495537409
-0.053069275589962
-0.0489870236215034
-0.0489870236215034
-0.0571515275584206
-0.0548674688199619
-0.0530253614713645
-0.0489870236215034
-0.0527151524373519
-0.0515812913939192
-0.0489870236215034
-0.053069275589962
-0.0501372213165295
-0.053069275589962
-0.053069275589962
-0.0571515275584206
-0.0528795680963839
-0.0529651107011733
-0.053069275589962
-0.053069275589962
-0.0544091807785835
-0.0571515275584206
-0.0562096596410119
-0.053069275589962
-0.0489870236215034
-0.0489870236215034
-0.053069275589962
-0.0510813748663278
-0.0489870236215034
-0.0571515275584206
-0.0571515275584206
-0.0518774494087402
-0.0459530900916866
-0.0449047716530448
-0.0449047716530448
-0.0445090200142389
-0.0430603786719888
-0.0449047716530448
-0.0449047716530448
-0.0449047716530448
-0.0501857066999886
-0.0383369880657845
-0.0418662668583658
-0.0420189171306274
-0.0367402677161275
-0.0392280849673322
-0.0492346962528689
-0.0572488355499459
-0.057301892198264
-0.0571515275584206
-0.0571515275584206
-0.0599400740893146
-0.0508799019860148
-0.0449047716530448
-0.0421669961380508
-0.041817781474861
-0.0513267618652904
-0.0488874299975769
-0.0429630706804667
-0.0408225196845862
-0.0408225196845862
-0.0475940617845217
-0.0478413971913377
-0.0478925054318055
-0.053069275589962
-0.0582486686050693
-0.0639178239443387
-0.0467953643851568
-0.0529723048230424
-0.0612337795268792
-0.0503265915855155
-0.0517781930093646
-0.0539138355158473
-0.0540668230126855
-0.0571515275584206
-0.053069275589962
-0.053069275589962
-0.0451062445333542
-0.0510306038504368
-0.053069275589962
-0.0456959377060585
-0.0408225196845862
-0.0436572659665368
-0.0408225196845862
-0.0440553032377496
-0.0408225196845862
-0.0498898859096647
-0.0594450660511515
-0.0569379520669416
-0.0275540111339325
0.0139165040854679
0.0542996952374201
0.124316785585477
0.212754949420638
0.354733116721702
0.549756354391886
0.729999231316656
0.873463247058703
0.914007106930485
0.754732397308014
0.400179096161892
0.143795095222497
0.00155396778188538
-0.0832026791512441
-0.111172150820064
-0.128270330218452
-0.154018954000495
-0.14217023536628
-0.138486020669082
-0.122642541079051
-0.0989451038108292
-0.0598022242235906
-0.031138969431861
-0.0220908999397675
-0.00719876802156785
-0.00568878929702869
-0.00695600387961225
0
0
7.19412186908151e-06
0.00593155343892446
0.0118559127560341
0.0177802720730932
0.0237046313901954
0.0244935118107517
0.0244935118107517
0.0251487014675963
0.0285757637792103
0.0288329161648479
0.0305587560134066
0.0285757637792103
0.0360604606737718
0.0372791898729059
0.0339612009395058
0.0367402677161275
0.0367402677161275
0.0367402677161275
0.0403154090351765
0.0390894857141866
0.0447956982748461
0.0408225196845862
0.04840909583548
0.0449047716530448
0.0483000224572846
0.0501421298059394
0.0560664891229948
0.0579085964716496
0.0612337795268792
0.0571515275584206
0.0615538055396579
0.0693592778346089
0.0693982834637965
0.0730434925318566
0.0775627874007137
0.0840571309944049
0.0816450393691723
0.0844941738948052
0.0863362812434195
0.0898095433060896
0.0938917952745482
0.0959448552577538
0.101869214574838
0.102056299211465
0.10555342927209
0.111477788589163
0.117402147906256
0.123326507223326
0.126549811022217
0.135175225857487
0.141099585174596
0.14702394449165
0.151043322832969
0.162284587806147
0.169947638970675
0.167372330706803
0.174781301975402
0.189603366144591
0.200741215616645
0.204112598422931
0.212589934250812
0.216359354328307
0.228350494092949
0.238527516138978
0.244451875456067
0.251735099470269
0.260382846058682
0.274471709312679
0.274790199080592
0.278718714164647
0.285757637792103
0.290004642644089
0.29392214172902
0.29392214172902
0.295530964689993
0.294553463387911
0.289839889760562
0.286786996722203
0.280862637405087
0.274938278088032
0.264931666802462
0.254493670493511
0.228589436357541
0.222665077040486
0.205638052003209
0.187483610656962
0.169710532705655
0.144667082739037
0.120740182960293
0.111644377472374
0.0904537169637649
0.0683317549041579
0.0509605361014275
0.0371344831100253
0.0227828095934299
0.0133056407103885
0
0
-0.00499687964335319
-0.0109212389604554
-0.0209278502459749
-0.0244935118107517
-0.0164475610063054
-0.0282539017667819
-0.0329374998864086
-0.0301383869891236
-0.0360627463061808
-0.0379048536548356
-0.0408225196845862
-0.0415890683520872
-0.0449047716530448
-0.0449047716530448
-0.0426941529081541
-0.0448752457781294
-0.0449047716530448
-0.0449047716530448
-0.0422370638870591
-0.0481614232041626
-0.0479705166902375
-0.0449047716530448
-0.0414409893446449
-0.0424441946443524
-0.0369607001049793
-0.0408225196845862
-0.0408225196845862
-0.0391580172183193
-0.0332336579012314
-0.03519094613777
-0.0470396647719644
-0.0408225196845862
-0.0408225196845862
-0.0412929103372112
-0.0425922736517698
-0.0408225196845862
-0.0408225196845862
-0.0408225196845862
-0.0393060962257289
-0.0400987985235834
-0.039704133496936
-0.0367402677161275
-0.0374606166325706
-0.0382600634195481
-0.0373848910065996
-0.0427403526592102
-0.0368159933420997
-0.0326580157476689
-0.0398749938902299
-0.0367402677161275
-0.0367402677161275
-0.0367402677161275
-0.0339278531872612
-0.0367402677161275
-0.034325890458492
-0.032832248385467
-0.0367402677161275
-0.0367402677161275
-0.038358570431334
-0.0408225196845862
-0.0338782811917034
-0.0367402677161275
-0.0318357875748879
-0.0259114282577844
-0.0335063975509095
-0.0385562214343673
-0.036792574976954
-0.0449047716530448
-0.0449047716530448
-0.0393522959767851
-0.0367402677161275
-0.0388846405893156
-0.0449047716530448
-0.0374144168815145
-0.0408225196845862
-0.0408225196845862
-0.0387043004417812
-0.0367402677161275
-0.0455466596783117
-0.0372602303643618
-0.0421446643849657
-0.0449047716530448
-0.043980664223878
-0.0408225196845862
-0.0408225196845862
-0.0408225196845862
-0.0447767387663035
-0.0408225196845862
-0.0408225196845862
-0.0449047716530448
-0.0414905613402608
-0.0379143334091095
-0.0408225196845862
-0.0400464912628149
-0.0367402677161275
-0.0408225196845862
-0.0386024211854234
-0.0367402677161275
-0.0385623289440796
-0.0371583511079834
-0.0340820397044139
-0.0400063990215175
-0.0408225196845862
-0.0436906137187634
-0.0477311247928417
-0.0432925764475471
-0.0487571114783796
-0.0386887131778002
-0.0326580157476689
-0.0408225196845862
-0.0373064301154179
-0.0326580157476689
-0.0357760680456265
-0.0367402677161275
-0.0367402677161275
-0.0403426492776889
-0.0344182899605805
-0.0367402677161275
-0.0348163272317912
-0.0364240635806039
-0.0382661709292568
-0.0408225196845862
-0.0356124017742053
-0.0296880424571481
-0.0326580157476689
-0.0275141437090487
-0.0295711379777346
-0.0408225196845862
-0.0368065135878275
-0.034964406239228
-0.029040046922123
-0.0340358399533578
-0.0367402677161275
-0.0316782288131732
-0.0285757637792103
-0.0291575134424851
-0.0253864447119565
-0.0207786846264337
-0.024524124297769
-0.0204112598422931
-0.022865729341273
-0.0273510394785174
-0.0261162733825973
-0.0173394072953916
-0.0171607158008877
-0.0204112598422931
-0.0204112598422931
-0.0204112598422931
-0.0204468932269209
-0.0244935118107517
-0.02077366372882
-0.0218909633043663
-0.0278153226214707
-0.0244935118107517
-0.0244935118107517
-0.0251771407304107
-0.0285757637792103
-0.0244935118107517
-0.028748909804906
-0.0286882094019654
-0.0221409215681611
-0.0280652808852482
-0.0326580157476689
-0.0294842839443832
-0.0317244285642299
-0.025800069247128
-0.0244935118107517
-0.0244935118107517
-0.0244935118107517
-0.0244935118107517
-0.0283152391490148
-0.029494850310754
-0.0279172018778078
-0.0273922183319599
-0.0275191646065971
-0.027790255603167
-0.02712112733539
-0.0289632346840466
-0.0304284374942341
-0.0285757637792103
-0.0304073047614345
-0.0253107190859263
-0.0273605192327859
-0.0293824046880067
-0.0214467262821031
-0.0244935118107517
-0.0279383346106074
-0.0220139752935186
-0.0165683997712303
-0.0224927590883135
-0.0244935118107517
-0.026892301804399
-0.017442373163871
-0.022982109249483
-0.03170329583144
-0.0317706283152867
-0.0285757637792103
-0.0326580157476689
-0.0303265582378498
-0.0285757637792103
-0.0285757637792103
-0.0285757637792103
-0.0270403808118089
-0.0278710021267516
-0.0326580157476689
-0.0296785627028761
-0.0293150722041975
-0.0352394315212511
-0.0323167445938888
-0.0285757637792103
-0.0285757637792103
-0.034443356978837
-0.033112819136313
-0.0244935118107517
-0.0277229231193571
-0.0326580157476689
-0.0354893897850616
-0.0361490382985807
-0.0326580157476689
-0.0328512078940114
-0.0387755672111203
-0.0446999265281775
-0.0351030054923766
-0.0361373853200532
-0.0326580157476689
-0.0357393480488425
-0.0358990800348021
-0.0407079008375684
-0.0449047716530448
-0.0449047716530448
-0.0489870236215034
-0.0433253621588464
-0.0330109398799236
-0.0423117029009314
-0.0449047716530448
-0.039731373739448
-0.039673521009906
-0.040129411010655
-0.0392754837386897
-0.0414126624900343
-0.0447126661188046
-0.0368432335846106
-0.0431656301729081
-0.0372412708558176
-0.0353991635072036
-0.0390244388627846
-0.0389363858091638
-0.0354431900340233
-0.0438147123200478
-0.0343531307009839
-0.0365932753208454
-0.0286798162597957
-0.0283247189032869
-0.035149205243398
-0.0257916761050127
-0.0297687889807328
-0.0326580157476689
-0.0318630278173535
-0.0259386685003
-0.02489046246986
-0.0285757637792103
-0.0326569291355702
-0.0389814989480899
-0.0293740115458405
-0.0326580157476689
-0.0293729249337345
-0.0285757637792103
-0.0372369244073754
-0.0496339325443784
-0.053069275589962
-0.0492358952731713
-0.053069275589962
-0.053069275589962
-0.053069275589962
-0.0459991774345372
-0.0449047716530448
-0.0417677598465431
-0.0417193868712406
-0.0449047716530448
-0.0413213496000279
-0.0472457089171324
-0.052968482945733
-0.0489870236215034
-0.0452020162800243
-0.0423673824062596
-0.0482917417233168
-0.0542161010404284
-0.0541625947593593
-0.0497358118007627
-0.0556601711178163
-0.0493377745295556
-0.053069275589962
-0.0490343099846589
-0.0507818446069435
-0.0494323472558753
-0.0463015553672778
-0.0554648057472515
-0.0561527811153947
-0.0559101293816269
-0.0565508183866017
-0.053069275589962
-0.053069275589962
-0.0571588340884337
-0.0651206661247426
-0.0555047855803975
-0.0495804262633057
-0.0502357283283541
-0.0561600876454076
-0.0653160314953379
-0.0572377071426222
-0.017695478855674
0.015555939533616
0.0537243903080286
0.126713402355183
0.222424111429932
0.396861032292748
0.603456427068375
0.753836242041708
0.875305054652664
0.881100032183258
0.62193898781411
0.266324741046329
0.0707366898760559
-0.051386525534165
-0.116630278586377
-0.123450605824602
-0.142817818738311
-0.156015135458056
-0.152948416216936
-0.153618518688633
-0.131941767855281
-0.0975267377309309
-0.0604514187791076
-0.0368253606881688
-0.0249766420540544
-0.0188107176152915
-0.0163290078738345
-0.0151265029180399
-0.0122467559053758
-0.0122467559053758
-0.00960018087219341
-0.0163290078738345
-0.0118319323498837
-0.00816450393691723
-0.00631400344614893
0.00330296371037284
0.00816450393691723
0.00816450393691723
0.00921892988527139
0.0122467559053758
0.00539502932275279
0.0122467559053758
0.0125051073113159
0.0163290078738345
0.0123864417706429
0.0122467559053758
0.0122467559053758
0.0176333920859738
0.0204112598422931
0.0253998587516783
0.0313242180687807
0.0326580157476689
0.0303075987293093
0.0327682881461665
0.0367402677161275
0.0405347548118787
0.0367402677161275
0.0367402677161275
0.0338143209524074
0.039738680269461
0.0408225196845862
0.0434228949667125
0.0452650023153691
0.0511893616324227
0.053069275589962
0.0471827228817912
0.0485511797414037
0.0557452640899155
0.0563176464071082
0.0663242576926359
0.07224861700973
0.0728703465061641
0.0693982834637965
0.0775627874007137
0.0775627874007137
0.0814591537528492
0.084957482833763
0.100304530548864
0.102056299211465
0.105156591021183
0.111080950338253
0.114303055116841
0.119309526922717
0.128854028289521
0.134842460254016
0.146691178888245
0.151043322832969
0.152993641764068
0.173340828958809
0.180729192065861
0.189605764185276
0.204112598422931
0.204112598422931
0.216987416150843
0.228836134785011
0.232688362202141
0.234446463190797
0.240370822507902
0.249017370075976
0.252219541142078
0.256219847566637
0.255903755839329
0.26295609350648
0.273510881886727
0.261098174077525
0.261197992517854
0.269196544550889
0.260516312005989
0.256551751374303
0.257628171851152
0.236801001841329
0.226978215355963
0.220441606296765
0.214279803490044
0.184658006904776
0.159172080977002
0.145463382097848
0.123988216552841
0.109917226195341
0.0888400979215501
0.0702888183243764
0.0554217534243543
0.0435730347902137
0.0292163403759783
0.0160611767136224
0.0122467559053758
-0.0035614275244787
-0.0204112598422931
-0.0204112598422931
-0.0271212397435748
-0.0295020444326231
-0.030407417169608
-0.0367402677161275
-0.0377758465640998
-0.0401849781077813
-0.0408225196845862
-0.0408225196845862
-0.0446264865346094
-0.0489870236215034
-0.0421751644638783
-0.0472363415710658
-0.053069275589962
-0.0489870236215034
-0.046377168585105
-0.0449047716530448
-0.0426929538878534
-0.0408225196845862
-0.0408225196845862
-0.0444784075272173
-0.0489870236215034
-0.0489870236215034
-0.0500047295730735
-0.053069275589962
-0.0496066923018628
-0.053069275589962
-0.0528476441808097
-0.0489870236215034
-0.0489870236215034
-0.0465704731396123
-0.0489870236215034
-0.042090183899941
-0.0511243147810243
-0.053069275589962
-0.0503575412971793
-0.0494586132944328
-0.0553829726115376
-0.053069275589962
-0.053069275589962
-0.0605848097879958
-0.0633277935471505
-0.0463498159344491
-0.0519496903820076
-0.0460253310649119
-0.0441832237163011
-0.0433861749699285
-0.0489870236215034
-0.0489870236215034
-0.0489870236215034
-0.053069275589962
-0.0566789636815364
-0.053069275589962
-0.0562809264103361
-0.053069275589962
-0.053069275589962
-0.0489870236215034
-0.0514025998994633
-0.0528938439318633
-0.0510045626282562
-0.0492096292346106
-0.0481437751241363
-0.053069275589962
-0.0514299525501735
-0.0571515275584206
-0.0489870236215034
-0.05165255816323
-0.0580023074022698
-0.0607810369542988
-0.053069275589962
-0.0568081955885869
-0.0612337795268792
-0.0545406983180674
-0.0538379974816732
-0.0582249130153189
-0.0583182867213446
-0.0537446237756496
-0.0621864386270646
-0.0650387205808537
-0.0612337795268792
-0.0612337795268792
-0.0629551605187758
-0.0688795198358629
-0.0693982834637965
-0.0662328323944785
-0.0612337795268792
-0.0640011933249901
-0.0693982834637965
-0.0693982834637965
-0.0612337795268792
-0.0671477972939695
-0.0772939820365468
-0.0637427295108482
-0.0714800075261331
-0.0723052707189761
-0.072415655525674
-0.0742577628743306
-0.0775627874007137
-0.0734805354322551
-0.0757018329517185
-0.0734993825325976
-0.0775627874007137
-0.0738974198038103
-0.0775627874007137
-0.0742954570750231
-0.0704254691696387
-0.0734805354322551
-0.068769135029165
-0.0702585430618683
-0.0814139282057479
-0.0775627874007137
-0.0736474615400377
-0.0693982834637965
-0.0658809948743276
-0.0665931754649613
-0.0693982834637965
-0.0693982834637965
-0.0721194975108512
-0.0693982834637965
-0.0693982834637965
-0.0734805354322551
-0.0715553959276145
-0.0693982834637965
-0.0719534331988215
-0.072767493045825
-0.0712224055078094
-0.0623448591844742
-0.0701293111548123
-0.0709074003926407
-0.0734805354322551
-0.0713054376638169
-0.0693982834637965
-0.0734805354322551
-0.0698613675864085
-0.0707773066898056
-0.0767016660069012
-0.0816450393691723
-0.0788219460657512
-0.0816450393691723
-0.0816450393691723
-0.0816450393691723
-0.0796180206081803
-0.0775627874007137
-0.0816450393691723
-0.0816450393691723
-0.0885785990874788
-0.0826542397704252
-0.0824779463165724
-0.0830522770416323
-0.0734805354322551
-0.0734805354322551
-0.0775627874007137
-0.0775627874007137
