-0.0675195138793367
-0.0675195138793367
-0.0675195138793367
-0.0702466878310808
-0.0675195138793367
-0.0728208197338433
-0.0729738617827949
-0.0752895763058724
-0.0717394834967953
-0.0672610964996218
-0.0632995442618782
-0.0673664718303862
-0.0632995442618782
-0.0632995442618782
-0.0659790514954639
-0.0717394834967953
-0.0675195138793367
-0.070352063161854
-0.0759594531142538
-0.0662750936988394
-0.0370313485799874
0.0140674129764301
0.0530231004397347
0.125251835767072
0.224120058626589
0.387572413507095
0.614284145070801
0.806965117666457
0.939783764338228
0.99103798157422
0.774427025239759
0.428981601014757
0.189567379389431
0.008635562492797
-0.0988506818252299
-0.139996624691745
-0.176034471330938
-0.201276496633882
-0.192251972132257
-0.173879297996725
-0.155085122537891
-0.122348993222688
-0.081584384101062
-0.0539689356624265
-0.042811864370302
-0.0353955527597978
-0.0327361293152853
-0.0277785323822138
-0.0210998480872927
-0.0248506496634198
-0.0163530018158077
-0.0210998480872927
-0.0210998480872927
-0.0172336292858332
-0.00955890029555681
-0.000765210244662645
-0.00113904484974289
-0.00117666967332625
-0.000727585421076423
-0.00421996961745855
0.000316125992409838
0.00199958853065351
0.00412463618120186
0.00843993923491709
0.00101358572984643
0.00139746222948782
0.00752168694133394
0.0136459116531969
0.0168798784698342
0.0168798784698342
0.0168798784698342
0.0209367641438045
0.0127452003940651
0.0163831274994776
0.0253198177047513
0.0217596830011376
0.0265642378853086
0.0295397873222098
0.0337597569396684
0.0310225410933877
0.0291182859989797
0.0276455741223654
0.0337697988342349
0.0379797265571269
0.0417982786404856
0.039482564117408
0.0387926035198934
0.0390711046887414
0.0392040629485599
0.0428796148775335
0.046419665792044
0.0511765539580657
0.0590795746444197
0.0550026051813451
0.0650607992019042
0.0675195138793367
0.0744390745195142
0.0801794227317124
0.0862760645145569
0.0956819227611718
0.089146238620656
0.100132726829348
0.109834627279282
0.117978524310894
0.12630304632045
0.138255453540859
0.146991434979076
0.148895690073487
0.155019914785334
0.165364109114655
0.176867432082832
0.186052497773281
0.189898632785635
0.194080977579531
0.202071832562224
0.206778511255469
0.216673621332558
0.226157271980972
0.223658389725303
0.229554322741098
0.23209832896022
0.237171343118682
0.23653909113386
0.242663315845701
0.240728935067621
0.242251856417035
0.248376081128904
0.245071821050361
0.233111914690037
0.236318298577679
0.230728449659727
0.21800079030015
0.199628116164541
0.189627630756708
0.167102737510873
0.160358845463425
0.138797328474662
0.12388945560649
0.106271949820994
0.0848459338467516
0.0653066319324079
0.0442920753868203
0.0249936498177748
0.0188694251059211
0.0127452003940657
0.00480201212950109
-0.00372321864710197
-0.005627473741503
-0.0150634576717881
-0.0253198177047513
-0.0282201174945202
-0.0295397873222098
-0.0320286276833245
-0.0339328827777232
-0.040057107489578
-0.0382180601477387
-0.0421996961745855
-0.0386295195764052
-0.0434541582497094
-0.046419665792044
-0.046419665792044
-0.046419665792044
-0.046419665792044
-0.046419665792044
-0.0421996961745855
-0.0402753572910711
-0.0341511325792017
-0.0379797265571269
-0.0345625920078681
-0.0379797265571269
-0.0409854016777191
-0.0415097355770709
-0.0379797265571269
-0.0424781973434336
-0.0507851783185621
-0.05077259366932
-0.0397510233917195
-0.045875248103563
-0.046419665792044
-0.049683758292358
-0.0445229098375248
-0.0351270934854767
-0.0337597569396684
-0.0337597569396684
-0.0338852160595948
-0.0400094407714499
-0.0382657268658669
-0.0421996961745855
-0.0421996961745855
-0.0409929008175896
-0.0348686761057416
-0.0371843906287946
-0.0337597569396684
-0.0375958500574554
-0.0383360201278007
-0.0380073094861219
-0.035636429105071
-0.0417606538169238
-0.0337597569396684
-0.0371292247707988
-0.0379797265571269
-0.0379797265571269
-0.0379797265571269
-0.0354331775833297
-0.0379797265571269
-0.0379797265571269
-0.0299010372780436
-0.0270434478212156
-0.0295397873222098
-0.0308519580100077
-0.0369761827218771
-0.0379797265571269
-0.0407846929106692
-0.0421996961745855
-0.0421996961745855
-0.046419665792044
-0.0484017132882531
-0.0467533328189102
-0.0395503146246696
-0.0421996961745855
-0.0433588248134616
-0.0494830495253093
-0.0548596050269611
-0.0548596050269611
-0.0590795746444197
-0.0568391097684814
-0.050714885056626
-0.0445906603447693
-0.0421996961745855
-0.0421996961745855
-0.0388778950615833
-0.0369736399671796
-0.0337597569396684
-0.0385743537184107
-0.0421996961745855
-0.0423828639072057
-0.046419665792044
-0.046419665792044
-0.0447437023936899
-0.0421996961745855
-0.0451551618223537
-0.0390309371105052
-0.0371266820161001
-0.0365170565750822
-0.0421996961745855
-0.0421996961745855
-0.0464497914757435
-0.0506396354095026
-0.0544782712819943
-0.0575566532950055
-0.0480052521393105
-0.0433111580953331
-0.0494353828072028
-0.0492396304253401
-0.0395954385880931
-0.0467082088554588
-0.0506396354095026
-0.0506396354095026
-0.0506396354095026
-0.0506396354095026
-0.0520095147099953
-0.0515854706320807
-0.0548596050269611
-0.0519969300607443
-0.0506396354095026
-0.0506396354095026
-0.0549951060414544
-0.0570398185355299
-0.0509155938236759
-0.046419665792044
-0.046419665792044
-0.0548596050269611
-0.0548596050269611
-0.0548596050269611
-0.0521499721096756
-0.0506396354095026
-0.0529378088981214
-0.0548596050269611
-0.0487529213495502
-0.0502106349464075
-0.046419665792044
-0.0531786852434381
-0.0548596050269611
-0.0548596050269611
-0.0590795746444197
-0.0590795746444197
-0.063540420607193
-0.0632292509999419
-0.0550301881103113
-0.0548596050269611
-0.058497532132403
-0.0548596050269611
-0.0548596050269611
-0.0548596050269611
-0.0548596050269611
-0.0548596050269611
-0.0524560562075187
-0.0506396354095026
-0.0506396354095026
-0.0506396354095026
-0.0480002957541533
-0.0541245204659982
-0.0548596050269611
-0.051786179399129
-0.0548596050269611
-0.052197638827793
-0.0590795746444197
-0.0568290678739151
-0.0590143668918628
-0.0511815103432791
-0.050162968228279
-0.0548596050269611
-0.0515277620193926
-0.0474357942765579
-0.0535600189884047
-0.0548596050269611
-0.0523506808767255
-0.0508328450366892
-0.0569570697485303
-0.0590795746444197
-0.0573935693515172
-0.0548596050269611
-0.0535850591627251
-0.0506396354095026
-0.0515027218450959
-0.0520922634969804
-0.0468712927989738
-0.0529955175108165
-0.0506798029877688
-0.0529151823543136
-0.0467909576424439
-0.046419665792044
-0.0498568841304359
-0.0548596050269611
-0.0518338461172356
-0.0471297101786921
-0.0480253359284436
-0.0419011112166043
-0.0401825666095192
-0.0421996961745855
-0.0397711071808528
-0.0421996961745855
-0.0393596477521861
-0.0421996961745855
-0.0454512040256514
-0.0393269793138021
-0.0385367288948531
-0.0446609536067051
-0.0421996961745855
-0.0401498981711291
-0.0419337796549787
-0.0421996961745855
-0.0421996961745855
-0.0392066057032557
-0.0421996961745855
-0.046419665792044
-0.046419665792044
-0.0460157055032423
-0.0445079115577714
-0.046419665792044
-0.0421996961745855
-0.0460007072235156
-0.0407143996487329
-0.0413692781773908
-0.0421996961745855
-0.0421996961745855
-0.0450949104549543
-0.0379797265571269
-0.0466705840319251
-0.0484844620752388
-0.0423602373633693
-0.043943410080183
-0.046419665792044
-0.046419665792044
-0.0496561753633858
-0.0454988707437798
-0.0421996961745855
-0.037470390937529
-0.0337597569396684
-0.0337597569396684
-0.0337597569396684
-0.0376661433193942
-0.0437903680312614
-0.042924738840982
-0.0283605748942006
-0.0253198177047513
-0.0153443724711482
-0.00576793114118218
-0.00457626318813483
-0.00843993923491709
-0.0126047429943857
-0.00843993923491709
-0.00843993923491709
-0.0113151988504052
-0.0235636482741046
-0.0273721584629128
-0.0396206078866063
-0.0379797265571269
-0.0404986926019292
-0.0335565054179152
-0.0274322807060738
-0.0213080559942048
-0.0244919424622304
-0.0367403918859703
-0.0337597569396684
-0.0337597569396684
-0.0304129156523457
-0.0365371403642152
-0.0417380272731158
-0.0379797265571269
-0.0421494867017529
-0.036025261989913
-0.041477196262918
-0.0448766606534964
-0.045646956407544
-0.0517711811193835
-0.057895405831253
-0.0548596050269611
-0.0574839464025868
-0.0590795746444197
-0.0590795746444197
-0.0631967116857603
-0.0614981217435855
-0.0553738970317424
-0.0534696419373351
-0.0506396354095026
-0.0454411621310847
-0.0421996961745855
-0.0469867100243366
-0.0481683360828166
-0.0421996961745855
-0.0421996961745855
-0.0421996961745855
-0.0438480766439443
-0.046419665792044
-0.0409627751338899
-0.0379797265571269
-0.0430251577866172
-0.046419665792044
-0.0502256332261346
-0.03251012212553
0.00845773851784994
0.0494205136516408
0.101410073696844
0.178568952152257
0.294229477434112
0.489588060128961
0.710504019374889
0.866554673551433
0.977126669898219
0.941448007227902
0.625461647795239
0.30684180896197
0.109499927258669
-0.0388385022289558
-0.109526129550957
-0.131145355152474
-0.162220519349087
-0.168798784698342
-0.166201897127518
-0.138004406176746
-0.117835395032345
-0.0954383745369185
-0.053067966154834
-0.0237191039535085
-0.0140899103960351
-0.00421996961745855
-0.00112646020049352
0.000777794893909389
0.00153791962915683
0
0.00454118111927587
0.00426509358088209
0.0102990703658917
0.0126599088523756
0.0112122371500648
0.00843993923491709
0.0179160907434813
0.0181593807192569
0.0217246009322765
0.0278488256441199
0.0337597569396684
0.0316422084289664
0.0335615909273227
0.0295397873222098
0.0295397873222098
0.0337597569396684
0.0337597569396684
0.0304229575469122
0.0393346075778958
0.0459479549960079
0.0445756620650325
0.046419665792044
0.046419665792044
0.046419665792044
0.046419665792044
0.049876967919569
0.0506396354095026
0.0536854781083608
0.0548596050269611
0.0574939882971532
0.0590795746444197
0.061302498485945
0.0632995442618782
0.071142442705055
0.0759594531142538
0.0815794277159048
0.0843993923491709
0.0876308164111033
0.0872921929990875
0.0934164177109475
0.0970593012015466
0.0973905545979321
0.105499240436464
0.109473377323449
0.103840818072538
0.104841948277324
0.113939179671381
0.120241615730685
0.126599088523756
0.126599088523756
0.131667146297085
0.141587296548451
0.147711521260321
0.155752585715813
0.164179940301488
0.171809545328313
0.184057994752053
0.190992553671954
0.197116778383824
0.203241003095663
0.211951944359596
0.219709422136831
0.225833646848701
0.2401168959961
0.248978207430054
0.256314313008286
0.267210424165953
0.273334648877822
0.274298025134806
0.277143159066614
0.287487353395912
0.29117790360464
0.291295863584705
0.293375658147622
0.283324963266923
0.282737964369723
0.282737964369723
0.278517994752264
0.275414443440733
0.269290218728871
0.263165994017021
0.252445422327895
0.240196972904187
0.219578748383273
0.203521788770765
0.179024889923354
0.160205674290253
0.138471031463434
0.120286610569871
0.105087651883575
0.0782750385130635
0.0675195138793367
0.0499696294768436
0.0358521361518581
0.0256960659403089
0.0176675861340885
0.00903952278136213
0.00291529806952265
-0.00320892664234681
-0.00511318173672774
-0.0112374064485972
-0.0173616311604372
-0.0234858558723066
-0.0294694940602736
-0.0272943660610985
-0.0295397873222098
-0.0311028762498908
-0.0337597569396684
-0.0295397873222098
-0.0325956719156133
-0.0295397873222098
-0.0321842124869687
-0.0331023356563058
-0.0230868519686591
-0.0252370689177665
-0.0374027695545204
-0.0459254575763959
-0.0450096189132847
-0.0421996961745855
-0.0454210783419514
-0.0392968536301021
-0.0379797265571269
-0.0379797265571269
-0.0381553951498866
-0.0421996961745855
-0.0382155173930335
-0.0379797265571269
-0.0379797265571269
-0.0421996961745855
-0.0421996961745855
-0.0371341811559615
-0.0337597569396684
-0.0337597569396684
-0.0314214158727828
-0.0253424442485891
-0.0314666689604292
-0.0375908936722987
-0.0322443347301162
-0.0295397873222098
-0.0242158549238658
-0.0210998480872927
-0.024627314352532
-0.0210998480872927
-0.0258819055518564
-0.0337597569396684
-0.0378493110520142
-0.0362058869678297
-0.0337597569396684
-0.0366173463964964
-0.0370263921946866
-0.0370288058251626
-0.0280494052869585
-0.0263987403113465
-0.0313160405419598
-0.0295397873222098
-0.0295397873222098
-0.0256032752587846
-0.0295397873222098
-0.0260147346874484
-0.0295397873222098
-0.0295397873222098
-0.0311355446882952
-0.0406818603345613
-0.037206888048375
-0.0295397873222098
-0.0379296462085464
-0.0361005116370196
-0.0413266969686715
-0.0379797265571269
-0.0379797265571269
-0.0432559922373657
-0.0434591146348754
-0.0428445328087019
-0.0438705740635421
-0.0377463493516738
-0.0358973892395041
-0.0379797265571269
-0.0320335840684994
-0.0295397873222098
-0.0350744703821711
-0.0379797265571269
-0.0379797265571269
-0.0407872356653739
-0.0374879319719576
-0.0337597569396684
-0.0338400920961715
-0.039964316808041
-0.0460885415198828
-0.0448465349697967
-0.0387223102579514
-0.0403030693442892
-0.046419665792044
-0.0506396354095026
-0.0479851683501961
-0.0425384487108337
-0.0441766581614009
-0.0421996961745855
-0.046419665792044
-0.0426838624956668
-0.0436197849479116
-0.0497440096597575
-0.0538509756823017
-0.0506396354095026
-0.0470168357080363
-0.0531410604198885
-0.0546738945396351
-0.0527296009912247
-0.0548596050269611
-0.0506396354095026
-0.0578051579044059
-0.0535925583025661
-0.0569822390470725
-0.0615883696704157
-0.0520997626368429
-0.0548596050269611
-0.0548596050269611
-0.063266875823474
-0.055205727578849
-0.0506396354095026
-0.0506396354095026
-0.0506396354095026
-0.0537456003515087
-0.0566761549492292
-0.0625969990150925
-0.0564727743032231
-0.0548596050269611
-0.0592502868520228
-0.0591999482549656
-0.0590795746444197
-0.0590795746444197
-0.0590795746444197
-0.0558028974948346
-0.0558205676534918
-0.0562143569234984
-0.046969168989908
-0.0530933937017601
-0.0589415308752214
-0.0548596050269611
-0.0548596050269611
-0.0574487352094772
-0.0513245104976328
-0.0506396354095026
-0.0537632705101671
-0.0624916236842691
-0.0590795746444197
-0.0671230527303934
-0.0609988280185403
-0.0548746033066845
-0.0544181490388508
-0.0590795746444197
-0.0563374024129714
-0.0590795746444197
-0.049573297452156
-0.0493902588437791
-0.0457647872633613
-0.047317963420724
-0.0548596050269611
-0.0548596050269611
-0.0548596050269611
-0.056595819792697
-0.0554391047842729
-0.0548596050269611
-0.0580886154584412
-0.0548596050269611
-0.0576771560297745
-0.0590795746444197
-0.0614856662185663
-0.0590795746444197
-0.0570849424989397
-0.0587584922668243
-0.0632995442618782
-0.0667869720730786
-0.0663478005911892
-0.0663755126444148
-0.0667592600198559
-0.0606350353080054
-0.0594283690752338
-0.0610464947366692
-0.0590795746444197
-0.0590795746444197
-0.0590795746444197
-0.0576494439765373
-0.0581939907892346
-0.0600982458836383
-0.0603766179282714
-0.0590795746444197
-0.0565681077394674
-0.0550553574088536
-0.0590795746444197
-0.0590795746444197
-0.0531710569793355
-0.0506396354095026
-0.0548596050269611
-0.0484969176002574
-0.0421996961745855
-0.0421996961745855
-0.0468738355536783
-0.0482812105534841
-0.0507250560754436
-0.0551856437897143
-0.0429371943659754
-0.0475686234121306
-0.0421996961745855
-0.0506396354095026
-0.0476113337450724
-0.0555721921683137
-0.0538458901728927
-0.0548596050269611
-0.0548596050269611
-0.0548596050269611
-0.0524335587879336
-0.0585577834997768
-0.0590795746444197
-0.0557928556002678
-0.0506396354095026
-0.0535148950249906
-0.0548596050269611
-0.0548596050269611
-0.046419665792044
-0.046419665792044
-0.042463069939487
-0.0421996961745855
-0.0421996961745855
-0.046419665792044
-0.046419665792044
-0.04723762826422
-0.047917417842935
-0.0379797265571269
-0.0379797265571269
-0.0421947397894289
-0.046419665792044
-0.0502232195956784
-0.0548596050269611
-0.0548596050269611
-0.0495632555575892
-0.0494003007383459
-0.0506396354095026
-0.0532088109271378
-0.050132713420331
-0.0378842639966484
-0.0337597569396684
-0.0302672436190647
-0.0216693059500385
-0.0126599088523756
-0.0126599088523756
-0.0117365710494063
-0.00843993923491709
-0.00843993923491709
-0.0108560727036307
-0.0169802974154701
-0.0231045221273396
-0.0292287468391813
-0.0253198177047513
-0.0218223479989851
-0.0210998480872927
-0.0241858583643961
-0.0287694915681621
-0.0279943685531909
-0.0383385628825079
-0.0421996961745855
-0.0421996961745855
-0.039831358548239
-0.0421996961745855
-0.0393193510496871
-0.0371041845965087
-0.0432284093083709
-0.046419665792044
-0.0470369194971657
-0.0556826530085165
-0.0548596050269611
-0.0569696543978014
-0.0590795746444197
-0.0548596050269611
-0.0548596050269611
-0.0548596050269611
-0.0516682194190424
-0.0506396354095026
-0.0506396354095026
-0.0553238166831622
-0.054342641143249
-0.0505868831819653
-0.0483766731139626
-0.0583621602421616
-0.0490940875162507
-0.0533192717673697
-0.0537255165623759
-0.0506396354095026
-0.0506396354095026
-0.0480127512791722
-0.046419665792044
-0.046419665792044
-0.0422999859959987
-0.0542475659554965
-0.0627877950118012
-0.0451120641166494
-0.00224249113372712
0.0416081282649767
0.0934872274698224
0.165821854624928
0.284776727214757
0.47004737757869
0.682207013348227
0.842133928221113
0.947471594474911
0.91015498060171
0.608027786508898
0.284749581322785
0.0881910965187861
-0.0464484108391038
-0.110968844868151
-0.127020718971239
-0.164599157118521
-0.177640012343104
-0.169205158617599
-0.144429500352793
-0.124014785602146
-0.0925878968471714
-0.0435940991523864
-0.01974992345166
-0.0100806914401735
-0.0081764363457645
-0.00205221163392315
0
0
0
0
0
-0.00328658991992232
0.00283763479194714
0
0.00242617536328044
0.00421996961745855
0.00623468555207228
0.0123589102639139
0.0126599088523756
0.0196749320530417
0.0295397873222098
0.0264437351505396
0.0253198177047513
0.0280044104477577
0.0295397873222098
0.0295397873222098
0.0337171757309495
0.0318980830539895
0.0295397873222098
0.0352099713966834
0.0413341961085342
0.0411609411462332
0.0409227366798675
0.0500123398098141
0.0413565644038963
0.0426313685166348
0.0485195441440954
0.0504440121518621
0.0590795746444197
0.0554666877132683
0.0506396354095026
0.0538410629119881
0.0548596050269611
0.05764957310078
0.0675195138793367
0.0698980225244889
0.0716766893746912
0.0694865630958222
0.0717394834967953
0.0748506630724329
0.083639267613943
0.0843993923491709
0.0874477778027349
0.0893520328971158
0.092839331584088
0.0934817545877272
0.107955670607697
0.113939179671381
0.123601170791531
0.134537320403164
0.136441575497572
0.142565800209418
0.152909994538739
0.156138875845966
0.164578815080883
0.164578815080883
0.177575062839055
0.18775108771547
0.193875312427324
0.205880471875273
0.210998480872927
0.217717461870321
0.220504628940946
0.217732589274294
0.233362962054141
0.240538268195137
0.240538268195137
0.249008462238005
0.257418146664971
0.261241784257739
0.26163811628243
0.26163811628243
0.266954549540934
0.273078774252782
0.273613020922423
0.270078055517347
0.269804510733629
0.263680286021787
0.253474006337405
0.241225556913726
0.232647703033832
0.220948627683765
0.208700178260026
0.190344916034685
0.16869569387372
0.145571087957307
0.121074189109829
0.100917762614699
0.0784955728207311
0.0557324751086487
0.0516330082259333
0.0323494518124447
0.0186961701435983
0.00955381478613959
0.00342959007427804
-0.00808390391271682
-0.0168798784698342
-0.0214462288876512
-0.0253198177047513
-0.027191533484996
-0.0295397873222098
-0.0366802696428321
-0.0455642076205587
-0.0421996961745855
-0.0421996961745855
-0.0428370336688398
-0.046419665792044
-0.0508655134750931
-0.0548596050269611
-0.0508252167725762
-0.0540769828721172
-0.0590795746444197
-0.0535523907243205
-0.0538511048065541
-0.0548596050269611
-0.0520595950585763
-0.0506396354095026
-0.0482510848697844
-0.0507124714261725
-0.0568366961380135
-0.0590795746444197
-0.0606452063268053
-0.0563597707082851
-0.0517938076632215
-0.0548596050269611
-0.0583368618193674
-0.0522126371074979
-0.0506396354095026
-0.0506396354095026
-0.0506396354095026
-0.0506396354095026
-0.0506396354095026
-0.0506396354095026
-0.0506396354095026
-0.0538584748221638
-0.047734250110315
-0.046419665792044
-0.0489135916625678
-0.0462414544445792
-0.0421996961745855
-0.0421996961745855
-0.0447486587788468
-0.0421996961745855
-0.0379797265571269
-0.0379797265571269
-0.0421996961745855
-0.0421996961745855
-0.0413264387201738
-0.0337597569396684
-0.0379797265571269
-0.039909150950051
-0.0421996961745855
-0.0394976915213843
-0.0456219162332538
-0.0475261713276347
-0.0506396354095026
-0.0513346815164516
-0.0522603038256253
-0.0509232220877888
-0.0548596050269611
-0.0548596050269611
-0.0590795746444197
-0.0590795746444197
-0.0590795746444197
-0.0623487526541663
-0.0665660503926677
-0.0661572628429582
-0.0590795746444197
-0.0590795746444197
-0.0590795746444197
-0.0570447749206722
-0.0587986598450915
-0.0616762039667974
-0.055551979254953
-0.0560714858933752
-0.0653118465660254
-0.0616987013863834
-0.0575642815591011
-0.0671305518702551
-0.061006327158402
-0.0632770468422931
-0.0632995442618782
-0.0595135314926714
-0.0605498728905683
-0.0599249909213381
-0.0548596050269611
-0.0578226989388354
-0.0632995442618782
-0.0632995442618782
-0.0675195138793367
-0.0675195138793367
-0.0715639440282885
-0.0717394834967953
-0.0717394834967953
-0.0675195138793367
-0.0675195138793367
-0.0684253106478766
-0.0689294316338445
-0.0680138512192108
-0.0741380759310803
-0.0759594531142538
-0.0779465861198721
-0.0801794227317124
-0.0859750659261225
-0.0816595046239045
-0.0813436368799973
-0.0843993923491709
-0.0836466376295528
-0.0775224129176823
-0.0717394834967953
-0.0739850338821586
-0.0718096476345091
-0.0772417563668852
-0.076922700247009
-0.0717394834967953
-0.0750663701192125
-0.0801794227317124
-0.0830948499254658
-0.0801794227317124
-0.0776754549666218
-0.0717394834967953
-0.0717394834967953
-0.0717394834967953
-0.0759594531142538
-0.0795447571164098
-0.0759594531142538
-0.0759594531142538
-0.0768175831646903
-0.0801794227317124
-0.0797327521099398
-0.0759594531142538
-0.075924241921145
-0.0717394834967953
-0.0755832048786963
-0.0759594531142538
-0.0828239770207223
-0.0832828449190143
-0.0771586202071439
-0.0717394834967953
-0.0717394834967953
-0.0759594531142538
-0.0737615694470188
-0.0717394834967953
-0.0699530592582269
-0.071210193212316
-0.0801794227317124
-0.0801794227317124
-0.0843993923491709
-0.0843993923491709
-0.0849514383017402
-0.0886193619666295
-0.0842588058252684
-0.0842691059683392
-0.0886193619666295
-0.076912658352419
-0.0788147580648603
-0.0789574999707314
-0.0759594531142538
-0.0759594531142538
-0.0759594531142538
-0.0717394834967953
-0.0717394834967953
-0.0717394834967953
-0.0717394834967953
-0.0717394834967953
-0.0774397932549684
-0.0767948274966055
-0.0770283338263056
-0.0831525585381526
-0.0795220014483245
-0.0759594531142538
-0.0759594531142538
-0.0759594531142538
-0.0759594531142538
-0.077698210634694
-0.0765364101168604
-0.0759594531142538
-0.0759594531142538
-0.0768752917773615
-0.082999516489231
-0.08389501311473
-0.0777707884028605
-0.0760523729200281
-0.0781822478315272
-0.0759594531142538
-0.0775451685857732
-0.0801794227317124
-0.0759594531142538
-0.0790379642514956
-0.0751966565000678
-0.0744065352053922
-0.071388146311276
-0.0675195138793367
-0.0633596665050252
-0.0675195138793367
-0.0675195138793367
-0.0703848607245322
-0.0759594531142538
-0.0759594531142538
-0.0759594531142538
-0.0705199743662666
-0.0632995442618782
-0.0675195138793367
-0.0675195138793367
-0.0635127085539463
-0.0675195138793367
-0.0603288220858893
-0.0632995442618782
-0.0632995442618782
-0.0590795746444197
-0.06185200168381
-0.0675195138793367
-0.0675195138793367
-0.0632995442618782
-0.0632995442618782
-0.0594457809854094
-0.0648375930152694
-0.0675195138793367
-0.0686461032040612
-0.0717394834967953
-0.0731697432889089
-0.0775600377412447
-0.0672158434119466
-0.0655074698236792
-0.0675195138793367
-0.0657230477462024
-0.0595988230343583
-0.0632995442618782
-0.0600102824629987
-0.0642730915376801
-0.064641711509124
-0.0680816017264719
-0.0742058264383414
-0.0717394834967953
-0.0737943670096746
-0.0759594531142538
-0.0717394834967953
-0.068191804318196
-0.0687514785348836
-0.0686032637468598
-0.0675195138793367
-0.0675195138793367
-0.0590795746444197
-0.0637061764296356
-0.0675195138793367
-0.0632995442618782
-0.0632995442618782
-0.0632995442618782
-0.0599049071322053
-0.0569217294311845
-0.0416901023064841
-0.0337597569396684
-0.0311880386673289
-0.0295397873222098
-0.0295397873222098
-0.0336043012602944
-0.0337597569396684
-0.0374128114490863
-0.0406544065298075
-0.046419665792044
-0.0412738156169119
-0.0379797265571269
-0.0421996961745855
-0.0397810199511677
-0.0423026578749266
-0.046419665792044
-0.0503311376811792
-0.0532638476608758
-0.0471396229490312
-0.058412498839217
-0.0675195138793367
-0.0598524131531716
-0.0606224506587344
-0.0594409537245049
-0.0632995442618782
-0.0591296549930002
-0.067007893753539
-0.0754979133370099
-0.0774021684314175
-0.0734854819086108
-0.0727707393852923
-0.0759594531142538
-0.0729790764164559
-0.0776553711774891
-0.0677278509105013
-0.0738520756223557
-0.0799763003342102
-0.0742583204173572
-0.0681340957055056
-0.0662298406111039
-0.0664934726245012
-0.0683977277189058
-0.0717394834967953
-0.0675195138793367
-0.0675195138793367
-0.0675195138793367
-0.065559963802713
-0.0671633494329129
-0.0717394834967953
-0.0717394834967953
-0.079369346772125
-0.0886193619666295
-0.0567729981462651
-0.00691382950950256
0.0365831681972896
0.0961371255168524
0.179992487550096
0.324273296348411
0.53397537955831
0.721336214022593
0.861718999720052
0.945844420182682
0.795776073221321
0.450753660080018
0.170744677400986
-0.00305273594768888
-0.107023453028526
-0.154884930267823
-0.166059671718649
-0.202805019989714
-0.192876595852979
-0.18360610949663
-0.162087173716539
-0.13824489514931
-0.0987647446623173
-0.0643427391783753
-0.0464120375279294
-0.0383759294575616
-0.0337597569396684
-0.0280393633923617
-0.0219151386805115
-0.0221888125884771
-0.0253198177047513
-0.0204223430147712
-0.0168798784698342
-0.0163477871821187
-0.0106102399731577
-0.00858535301972415
-0.00773765223660629
-0.00899681244839085
0
0
0
0
0.00369550659388384
0.00242871811798562
0.00410696602255055
0
0.00784302756740206
0.00582576887810982
0.00843993923491709
0.00963427906690167
0.0157585037787491
0.0160969980665154
0.0153470443500863
0.0165084574951821
0.0149355849214225
0.0210598096332781
0.0210998480872927
0.02486831982207
0.0295397873222098
0.0295397873222098
0.0327184591566055
0.026594234444756
0.0350194336484627
0.0472678830721656
0.0546412261012307
0.0485170013893763
0.0504465549065663
0.0506396354095026
0.0506396354095026
0.0490190961176415
0.05806357528415
0.0590795746444197
0.0618720854729428
0.0670427175738646
0.0656805956617346
0.0717394834967953
0.0756786674391747
0.084053269797313
0.0859575248916939
0.0955441372404974
0.10664591355032
0.106668281845654
0.11467439335657
0.118159149288839
0.123026627419344
0.135275076843084
0.143391261821449
0.145882386688781
0.143478966993591
0.158949056833169
0.164578815080883
0.182452324615652
0.188576549327502
0.200085086929356
0.213484907603589
0.219609132315448
0.225733357027316
0.235836804135555
0.240538268195137
0.24410603116287
0.248978207430054
0.252134510969123
0.2523575880315
0.25172305154046
0.26163811628243
0.26163811628243
0.265840415741207
0.259716191029352
0.257418146664971
0.26163811628243
0.254808674444817
0.243659231416845
0.234531745214857
0.220908201856957
0.199003105071049
0.180630430935444
0.162257756799922
0.143885082664311
0.117072469293878
0.102372933456819
0.0803271210227516
0.0619544468871404
0.0445277370984312
0.0294290682334722
0.0152763637154095
0.00178120960490699
-0.00856298472439197
-0.0167145100201453
-0.0289629594438303
-0.031155628477428
-0.0443200456884833
-0.0452152840654926
-0.0453083329955267
-0.0514325577073892
-0.0548596050269611
-0.0471825915304839
-0.0548596050269611
-0.0548596050269611
-0.0548596050269611
-0.051081091397616
-0.0563224041332472
-0.062446628845098
-0.0580282349667973
-0.0548596050269611
-0.0548596050269611
-0.0574037403703061
-0.0632995442618782
-0.0654322201765565
-0.0634825828702466
-0.0531383885409318
-0.054265106989926
-0.0564600605296886
-0.0506396354095026
-0.0548596050269611
-0.0576621577500511
-0.0590795746444197
-0.061470667938843
-0.0633749230332543
-0.0675195138793367
-0.0636356249191683
-0.0632995442618782
-0.06677197379338
-0.0632995442618782
-0.0632995442618782
-0.0632995442618782
-0.0606500335877099
-0.0594133707955113
-0.0632995442618782
-0.0591572379219941
-0.0609061664612546
-0.0632995442618782
-0.0632995442618782
-0.0599801567793217
-0.0590795746444197
-0.0590795746444197
-0.063891757792713
-0.0675195138793367
-0.0634802983640463
-0.0654345046827716
-0.0632995442618782
-0.0590795746444197
-0.0590795746444197
-0.0645616346011248
-0.0706858593129708
-0.0675195138793367
-0.0702743998843089
-0.0717394834967953
-0.0740829100731037
-0.0717117714435488
-0.0655875467316921
-0.0671357665039165
-0.0717394834967953
-0.0717394834967953
-0.0717394834967953
-0.0747527868815021
-0.0724370723584486
-0.0785612970702939
-0.0762455825472433
-0.0823698072590858
-0.0803047527273876
-0.0868404368679228
-0.0770330319629376
-0.0675195138793367
-0.0707912346437886
-0.070783477255422
-0.0703797752151219
-0.0796348759190058
-0.0759594531142538
-0.0759594531142538
-0.0759594531142538
-0.0759594531142538
-0.0733653665465803
-0.0830197294025937
-0.0801794227317124
-0.0801794227317124
-0.0759594531142538
-0.0813738916879423
-0.084007887585386
-0.0801794227317124
-0.0759794077791356
-0.0778437535437705
-0.0801794227317124
-0.073013771112548
-0.070896609974582
-0.0664581323071476
-0.0662651809284567
-0.0723894056403206
-0.0810678075900775
-0.0881424365369064
-0.0801794227317124
-0.0801794227317124
-0.0843993923491709
-0.0807638788741807
-0.0759594531142538
-0.0791835071605774
-0.0801794227317124
-0.0829920173493693
-0.0881224818720247
-0.0819982571601808
-0.0845702336810529
-0.092839331584088
-0.0889454007293527
-0.0886193619666295
-0.0886193619666295
-0.0832326354461809
-0.0801794227317124
-0.0752041556399305
-0.0717394834967953
-0.072083321542452
-0.0759594531142538
-0.0759594531142538
-0.0801794227317124
-0.0764385339259253
-0.0759594531142538
-0.0726300237371305
-0.0727531983508637
-0.0730414831657943
-0.0681217693047385
-0.0717394834967953
-0.0717394834967953
-0.0696444324056633
-0.0715188200648655
-0.0759594531142538
-0.0723716063573918
-0.0717394834967953
-0.0749158708249906
-0.0750987803091132
-0.0717394834967953
-0.0755102397377738
-0.0693860150259201
-0.0675195138793367
-0.0675195138793367
-0.0675195138793367
-0.0790205523413491
-0.0809645876412306
-0.0801794227317124
-0.0771560774524387
-0.0724471142530154
-0.0759594531142538
-0.0717394834967953
-0.0739399099187356
-0.080064134630606
-0.0819683897249859
-0.0770129481738001
-0.0731169910614022
-0.0759594531142538
-0.0759594531142538
-0.0759594531142538
-0.0722940722040687
-0.0759594531142538
-0.0718826127754039
-0.0800542218602911
-0.0843993923491709
-0.0801794227317124
-0.083719602770451
-0.077183918629939
-0.0833081433417872
-0.0843993923491709
-0.0843993923491709
-0.0801794227317124
-0.0778736209789651
-0.0801695099613994
-0.0843993923491709
-0.0843993923491709
-0.0858822752445906
-0.0852322239768193
-0.0854708158159269
-0.0886193619666295
-0.0850593563872631
-0.0886193619666295
-0.0888678665760579
-0.092839331584088
-0.092839331584088
-0.0910980313089427
-0.0886193619666295
-0.0872895211201509
-0.0811652964082824
-0.0801794227317124
-0.0801794227317124
-0.0801794227317124
-0.0825905998152676
-0.0843993923491709
-0.0843993923491709
-0.0843993923491709
-0.0785911645054888
-0.0759594531142538
-0.0801794227317124
-0.0770983688397455
-0.0809447621006026
-0.0843993923491709
-0.0840455124089474
-0.0846956928009832
-0.0844569718376137
-0.0843993923491709
-0.0843993923491709
-0.0829641761718689
-0.0835188940034006
-0.0843993923491709
-0.0843993923491709
-0.0837870950292023
-0.0776628703173498
-0.0761602910055557
-0.08438960870311
-0.0846100138865358
-0.0759594531142538
-0.0795573417656809
-0.0801794227317124
-0.0801794227317124
-0.0768301678139613
-0.0801794227317124
-0.0801794227317124
-0.0801794227317124
-0.0844471881915508
-0.0866673110298674
-0.0805430863179989
-0.0801794227317124
-0.0836242693342178
-0.0748303210348032
-0.074772870670634
-0.075241780463467
-0.0717394834967953
-0.0759594531142538
-0.0759594531142538
-0.080074176525171
-0.078380413843872
-0.0722561891320034
-0.0745719036550801
-0.0684476789432116
-0.0684956039098438
-0.0688591383718764
-0.0680841444811771
-0.0692705978005431
-0.0675195138793367
-0.0695769401469222
-0.067777802134828
-0.0632995442618782
-0.0597493223285747
-0.0670030664926344
-0.0790982156188936
-0.0801794227317124
-0.0774521196557345
-0.0755478645613352
-0.0717394834967953
-0.0717396126210472
-0.0721506846769533
-0.0675195138793367
-0.0744665283242673
-0.0683423036124182
-0.0770409184755766
-0.0771937022760001
-0.0675195138793367
-0.0675195138793367
-0.0717394834967953
-0.0695766818984164
-0.0715865705721256
-0.0742081109445417
-0.0790506780250396
-0.0788395399906669
-0.0792035909497112
-0.0783225761069549
-0.0774048403103765
-0.0796624588480003
-0.0735382341361299
-0.0717394834967953
-0.0737492430462525
-0.0759594531142538
-0.0717394834967953
-0.0752420387119958
-0.0717394834967953
-0.0748305792833291
-0.0709641022333382
-0.0728787865950709
-0.0717394834967953
-0.0717394834967953
-0.0717394834967953
-0.0698827659962616
-0.0637585412844179
-0.0590795746444197
-0.0657786009769335
-0.0749256544710517
-0.065863376021609
-0.0372209824583018
0.00671962661865904
0.0523266736964526
0.109781010912358
0.203368657327904
0.358355426908273
0.568762339871469
0.751335773112986
0.888996470368156
0.948060967272161
0.760952997845508
0.40275207308279
0.144011882690572
-0.00942318076301075
-0.0978382582136562
-0.125891845140321
-0.144342828174636
-0.170723510954647
-0.164578815080883
-0.158491956944069
-0.140568108812176
-0.110807270685312
-0.0698419527966559
-0.037537624947748
-0.0212902567112419
-0.0108508580699683
-0.00472663335809981
-0.0013975913537406
-0.00752181606560913
-0.0116737769273017
-0.00265916519594933
0
0
0
0.00413493632430095
0.00843993923491709
0.00421996961745855
0.011340497273203
0.0156353291650152
0.00951110445316722
0.0134929987285279
0.0196172234403788
0.0210998480872927
0.0210998480872927
0.0253096466859324
0.0210998480872927
0.0210998480872927
0.023816851020198
0.0245070698662367
0.0306312945780994
0.0307639945893911
0.0344398047668941
0.0353954236355163
0.0342969337367923
0.0443725396675293
0.0423425672046864
0.046419665792044
0.046419665792044
0.0477695904276564
0.0506396354095026
0.0515781006164482
0.0577023253283186
0.0632995442618782
0.0632995442618782
0.0675195138793367
0.0695393153233608
0.0717394834967953
0.0701311414814379
0.0710321109890792
0.0771563357009445
0.083280560412791
0.0843993923491709
0.0870890706016049
0.0893672894253403
0.101615738849081
0.105499240436464
0.113452728844127
0.118159149288839
0.119614449255275
0.12573867396712
0.136082868296443
0.14220709300829
0.143478966993591
0.146015603197085
0.156359797526402
0.162484022238255
0.168608246950111
0.176446189008134
0.188694638431839
0.195420860320596
0.20475159804434
0.211889279361767
0.220808557656841
0.23209832896022
0.23209832896022
0.23638617820919
0.240538268195137
0.248291047835749
0.254758852344742
0.26088307705661
0.267007301768451
0.273131526480319
0.282737964369723
0.282737964369723
0.291504200615869
0.295397873222098
0.291263066022047
0.286957933987181
0.290681281758565
0.285550300738876
0.279426076027005
0.268085707878069
0.252936829540278
0.238784125022221
0.220411450886604
0.201692266826483
0.17522616338056
0.156853489245039
0.138480815109433
0.116537835251466
0.0975154972208477
0.0823016693790828
0.0658332503378985
0.0508374140490909
0.0371163818730221
0.0248679324493182
0.0126396959389899
0.00843993923491709
0.00461121613273953
0
-0.00683452734702172
-0.0137614580028301
-0.0168798784698342
-0.0217899378090834
-0.0253198177047513
-0.0253198177047513
-0.0253198177047513
-0.0294069581866739
-0.0319883309808224
-0.0295397873222098
-0.0337597569396684
-0.0337597569396684
-0.0328112498381559
-0.0352453117140548
-0.0374426788842811
-0.0362010597069242
-0.0421996961745855
-0.0401698528359964
-0.0379797265571269
-0.0395981104670493
-0.0386770571702763
-0.0325528324584127
-0.0326509668978553
-0.0337597569396684
-0.0391591972336354
-0.0379797265571269
-0.0402679872754467
-0.0380071803618695
-0.0337597569396684
-0.029978700555616
-0.0225651899482953
-0.0219502207493626
-0.0221537305196286
-0.0223616801780264
-0.0253198177047513
-0.0227731396066902
-0.0213308116622952
-0.0274550363741486
-0.0335792610860042
-0.0354835161804019
-0.0379797265571269
-0.0379797265571269
-0.0379797265571269
-0.0337597569396684
-0.0337597569396684
-0.0300291682769539
-0.0361533929887978
-0.0380576480832072
-0.0421996961745855
-0.0421996961745855
-0.0337597569396684
-0.0337597569396684
-0.0337597569396684
-0.0337597569396684
-0.0253198177047513
-0.0253198177047513
-0.0253198177047513
-0.0275604117049572
-0.0253949382276215
-0.0271489522762905
-0.0332731769881343
-0.0337597569396684
-0.0337597569396684
-0.0327535412254607
-0.0295397873222098
-0.0265093302758332
-0.0337597569396684
-0.0337597569396684
-0.0358473088909545
-0.0339879195114592
-0.0320836644170509
-0.0295397873222098
-0.0308044204161606
-0.0337597569396684
-0.0295397873222098
-0.0295397873222098
-0.0295397873222098
-0.0295397873222098
-0.0253198177047513
-0.0272543276071001
-0.0333785523189524
-0.0322367064659833
-0.0329670928902857
-0.0348713479846915
-0.0409955726965361
-0.0372795949407676
-0.0363641436504127
-0.0379797265571269
-0.0379797265571269
-0.0338825441806374
-0.0313212551756208
-0.0300740339918456
-0.0309097957469541
-0.0337597569396684
-0.0337597569396684
-0.0337597569396684
-0.0300868768896206
-0.036211101601491
-0.038115356695871
-0.0401598109414295
-0.0379797265571269
-0.0405712703700962
-0.0344470456582528
-0.0337597569396684
-0.0337597569396684
-0.0337597569396684
-0.0337597569396684
-0.0299338348407009
-0.0360580595525531
-0.033777168849844
-0.0379797265571269
-0.0379797265571269
-0.0322843731841112
-0.0329194261721593
-0.0284758629953089
-0.0282879971260429
-0.030192252220444
-0.0337597569396684
-0.0297807927917773
-0.0337597569396684
-0.0337597569396684
-0.0379797265571269
-0.0343416703274343
-0.0324374152330299
-0.0295397873222098
-0.0337597569396684
-0.0337597569396684
-0.0337597569396684
-0.0289524010522795
-0.029715714163504
-0.0359875080420992
-0.0337597569396684
-0.0337597569396684
-0.0337597569396684
-0.0283704876645155
-0.0283933724568574
-0.031055467780265
-0.0353176312336875
-0.0298861681225707
-0.0337597569396684
-0.0296048659505152
-0.0277006108561019
-0.0253198177047513
-0.0253198177047513
-0.0253198177047513
-0.0253198177047513
-0.0223993050015875
-0.0210998480872927
-0.0236089013618105
-0.0255131564561924
-0.0274421934763587
-0.0253198177047513
-0.0278536529050254
-0.0217294281931805
-0.0223745230758104
-0.0284987477876582
-0.0261830332646023
-0.032307257976453
-0.0295397873222098
-0.0318957985477892
-0.0337597569396684
-0.0357043087365859
-0.0302821127745043
-0.0337597569396684
-0.0268850620143792
-0.0295397873222098
-0.0265138992882319
-0.0253198177047513
-0.0253198177047513
-0.0253198177047513
-0.0253198177047513
-0.0253198177047513
-0.0331228068181654
-0.0416754913995166
-0.0337597569396684
-0.0370440623533913
-0.0285711964315654
-0.0281926636898075
-0.0332026254776907
-0.0270784007658184
-0.0296854593555208
-0.0358096840673931
-0.0379797265571269
-0.0363412588580689
-0.0337597569396684
-0.0379797265571269
-0.0348484631923479
-0.034575305781393
-0.0406995304932422
-0.0413915173484697
-0.0360681014471199
-0.0379797265571269
-0.0337597569396684
-0.0299586167664853
-0.0268052433548752
-0.0363191488112425
-0.0305378582752879
-0.0210998480872927
-0.0295397873222098
-0.0295397873222098
-0.0337597569396684
-0.0359150593981974
-0.0379797265571269
-0.0355035999695355
-0.0379797265571269
-0.0337597569396684
-0.0337597569396684
-0.034680681112208
-0.0351545472901989
-0.0337597569396684
-0.0337597569396684
-0.0337597569396684
-0.0337597569396684
-0.0298532414356638
-0.0311305883031377
-0.0372548130150062
-0.0349390984919296
-0.0441469198504693
-0.0471875479156385
-0.0479674981914981
-0.0460632430971144
-0.0421996961745855
-0.0505295619420292
-0.0524888537701755
-0.0473526581168449
-0.0436374551065917
-0.0430776517656497
-0.0379797265571269
-0.0409102811548575
-0.0415848560999126
-0.0430179168952605
-0.0548596050269611
-0.0506443335461551
-0.042407774957246
-0.0438958724863367
-0.046419665792044
-0.04348441305767
-0.046419665792044
-0.0506396354095026
-0.0478621228606945
-0.0426614942003385
-0.0487857189121902
-0.0505892968124162
-0.0444650721005616
-0.0460585449604637
-0.046419665792044
-0.046419665792044
-0.0421996961745855
-0.0452356261031302
-0.0449792349810618
-0.040604197057005
-0.0379797265571269
-0.0379797265571269
-0.0420969927227483
-0.046419665792044
-0.046419665792044
-0.0435897883884634
-0.046419665792044
-0.0454410330068309
-0.0393168082949642
-0.0374125532005805
-0.0362311853906248
-0.0337597569396684
-0.0337597569396684
-0.0337597569396684
-0.0396282361507499
-0.0421996961745855
-0.0434367463395418
-0.0495609710513899
-0.0363285450845477
-0.0295397873222098
-0.0350021508625371
-0.0510564385960806
-0.0633075598987468
-0.0721455991675448
-0.0598971497438406
-0.0632995442618782
-0.0598998216227969
-0.0559436131429899
-0.056091311434005
-0.0513121840968676
-0.0548596050269611
-0.0551206942856624
-0.0612449189975028
-0.0551603453668883
-0.0608334595688361
-0.0632995442618782
-0.0675195138793367
-0.0707661944694983
-0.0665885478122304
-0.0632995442618782
-0.0680390205177794
-0.0717394834967953
-0.0675195138793367
-0.0675195138793367
-0.0753526286764796
-0.0743586102387591
-0.0682343855268906
-0.0632995442618782
-0.0632995442618782
-0.0632995442618782
-0.0659817233744514
-0.0675195138793367
-0.0675195138793367
-0.0675195138793367
-0.0735987437520351
-0.0759594531142538
-0.0745116522876807
-0.0750915394177564
-0.079143081333806
-0.0671376636373618
-0.0687692778178161
-0.0759594531142538
-0.0753191854925349
-0.0463581231821198
-0.00138625821665594
0.033043375531448
0.0939653150178802
0.179780227128087
0.297235708782069
0.486672195900055
0.681507179711122
0.824834614416538
0.931054417900718
0.857673635903923
0.51147873472909
0.185299494737976
0.021129288419179
-0.0814012560988571
-0.131960774869937
-0.141130971404893
-0.174479268915916
-0.178824181156274
-0.176601128190471
-0.162129625801013
-0.14788425972559
-0.115729527301098
-0.0827000276613975
-0.0590991419365493
-0.0473352462066459
-0.0421996961745855
-0.0421996961745855
-0.0421996961745855
-0.0372367554835389
-0.025485573527196
-0.0295397873222098
-0.0295397873222098
-0.0337597569396684
-0.0266341437745193
-0.0139070009118988
-0.020031225623745
-0.0118242762215192
-0.0111798269601641
-0.0118115624479961
-0.00421996961745855
-0.0126599088523756
-0.00690900224861732
0
-0.00693442979566143
-0.000810205083808447
0
0
0
0
0.00394883846419235
-0.00217538624764999
-0.00421996961745855
-0.000692115979491964
0.000551787704065277
0.00135246739031659
0.000963247132731979
0
0.00284526305605987
0.00474951815046796
0.0133075464897034
0.0168798784698342
0.0168798784698342
0.0208064777629744
0.0210998480872927
0.0210998480872927
0.0265192430461462
0.0326434677580166
0.0337597569396684
0.0310675359325283
0.0337597569396684
0.031478995361195
0.0379098206679171
0.0379797265571269
0.0417532838013168
0.0394375692782669
0.0522859896211637
0.0506396354095026
0.0565409121832271
0.0681544377431433
0.0717394834967953
0.0764063819845336
0.0865271118787057
0.0886193619666295
0.0962718517858337
0.104899786014272
0.106804041108673
0.116137321587123
0.124165801393388
0.136414250817082
0.135520909573555
0.144031271194666
0.151989328614726
0.158113553326582
0.164237778038435
0.164578815080883
0.17151376137357
0.178390482556547
0.184514707268394
0.194858901597718
0.203627680598572
0.210998480872927
0.210998480872927
0.219273180782441
0.217616784676166
0.218944341016476
0.215218450490386
0.215218450490386
0.203557258212355
0.212584454592983
0.209823966581571
0.20006702939792
0.185327067734153
0.170998565498989
0.144657275551858
0.135921810610619
0.11652766423265
0.0975078689567349
0.0822965838696743
0.0590711716347614
0.0339499073151441
0.0151430180828001
-0.00467694038230379
-0.0211681150915682
-0.0356867677021565
-0.0418109924140106
-0.0536707380771512
-0.0659191875008536
-0.0792717288297355
-0.0916277089661798
-0.0963666687250498
-0.092839331584088
-0.101560443866838
-0.105499240436464
-0.105499240436464
-0.111493178767472
-0.117617403479341
-0.122379118906298
-0.122379118906298
-0.121428069050079
-0.118159149288839
-0.118159149288839
-0.118159149288839
-0.118159149288839
-0.118159149288839
-0.118159149288839
-0.118159149288839
-0.121684331047878
-0.122379118906298
-0.119265396575926
-0.113939179671381
-0.116641442573086
-0.117772600910211
-0.116229983144419
-0.12235420785626
-0.116279805244468
-0.113939179671381
-0.118159149288839
-0.118159149288839
-0.113939179671381
-0.113939179671381
-0.113939179671381
-0.113939179671381
-0.113705673341674
-0.111856971478026
-0.113939179671381
-0.113171814044801
-0.121789706378671
-0.118159149288839
-0.118159149288839
-0.118159149288839
-0.115351511056341
-0.114923027090277
-0.12477529771013
-0.122218190344729
-0.117908618421711
-0.122379118906298
-0.120805858959799
-0.118159149288839
-0.118159149288839
-0.118159149288839
-0.118159149288839
-0.118159149288839
-0.113939179671381
-0.116182316426293
-0.114011757439517
-0.115770856997626
-0.121895081709495
-0.122379118906298
-0.119054645914309
-0.121370360437386
-0.118159149288839
-0.121781819866053
-0.113156041019529
-0.114310858894538
-0.124469213612286
-0.118610388923013
-0.115617814948703
-0.121742039660547
-0.119426325137494
-0.125550549849344
-0.122379118906298
-0.12513909042068
-0.122823375897621
-0.124250576438038
-0.122411916468955
-0.124662035866701
-0.118537811154849
-0.11968474251723
-0.12580896722908
-0.120150851306843
-0.116957568565496
-0.122379118906298
-0.119772189440849
-0.118741579173639
-0.124403618486975
-0.126478844037492
-0.1290350475331
-0.122910822821229
-0.126599088523756
-0.123322282249894
-0.119120241039623
-0.125244465751493
-0.122928751228415
-0.126599088523756
-0.122517291799748
-0.126599088523756
-0.126599088523756
-0.124968119964561
-0.125914342559878
-0.132038567271744
-0.125667735083858
-0.123995218310022
-0.128106753344943
-0.126995678796952
-0.12851821277361
-0.130804188985744
-0.128929672202276
-0.126599088523756
-0.122379118906298
-0.125761300510959
-0.126599088523756
-0.126599088523756
-0.126599088523756
-0.126599088523756
-0.122379118906298
-0.124526922224968
-0.126599088523756
-0.120642775016291
-0.121799748273238
-0.126599088523756
-0.126599088523756
-0.126599088523756
-0.129416768650822
-0.130819058141215
-0.128412837442816
-0.126689594699108
-0.130819058141215
-0.126920041777069
-0.123962420747363
-0.126599088523756
-0.127770930936157
-0.136971253154839
-0.138498614392398
-0.132374389680528
-0.126250164968662
-0.124632297555777
-0.126599088523756
-0.130819058141215
-0.130819058141215
-0.135039027758673
-0.131704512872118
-0.135039027758673
-0.132115972300785
-0.135646368693484
-0.13674740134691
-0.131014939647358
-0.135039027758673
-0.135039027758673
-0.135039027758673
-0.135039027758673
-0.143478966993591
-0.137116021318368
-0.135904786073231
-0.136488983967185
-0.135493326644564
-0.136900443395848
-0.130819058141215
-0.134713247244455
-0.143110347022148
-0.137723362253176
-0.138478917976022
-0.13813482168184
-0.138067458547356
-0.137833564844875
-0.136053000861246
-0.143478966993591
-0.143478966993591
-0.139369199967832
-0.143478966993591
-0.143478966993591
-0.144861560067608
-0.144412088442622
-0.143478966993591
-0.14060357825383
-0.135039027758673
-0.13257509844758
-0.130819058141215
-0.130819058141215
-0.134775783118026
-0.137617986922372
-0.138584293306821
-0.132579925708486
-0.12973289464324
-0.138440905779705
-0.132316681067854
-0.135039027758673
-0.135039027758673
-0.135039027758673
-0.135039027758673
-0.138842710686564
-0.130575122544152
-0.125771342405524
-0.130819058141215
-0.130819058141215
-0.126599088523756
-0.129168393165655
-0.126345498404916
-0.124536964119533
-0.130661188831389
-0.135039027758673
-0.135039027758673
-0.135039027758673
-0.135039027758673
-0.130819058141215
-0.133646780162847
-0.139258997376132
-0.136842734783165
-0.135039027758673
-0.135039027758673
-0.135039027758673
-0.141885623257957
-0.132263799716044
-0.126599088523756
-0.126599088523756
-0.126599088523756
-0.129273768496467
-0.130819058141215
-0.130819058141215
-0.126651582502789
-0.130819058141215
-0.130819058141215
-0.136479329445384
-0.129225327032765
-0.1276279307818
-0.130819058141215
-0.130819058141215
-0.133340696065006
-0.135244951159386
-0.141369175871256
-0.143478966993591
-0.139258997376132
-0.139258997376132
-0.135039027758673
-0.135039027758673
-0.135039027758673
-0.135039027758673
-0.130354717360758
-0.126599088523756
-0.130766176789424
-0.126599088523756
-0.130460480064339
-0.129690442558802
-0.141938891982505
-0.135039027758673
-0.135039027758673
-0.13009629998102
-0.129226101778341
-0.143790265725124
-0.147698936611049
-0.147698936611049
-0.139258997376132
-0.139258997376132
-0.135039027758673
-0.135039027758673
-0.130819058141215
-0.133704488775542
-0.131388774252466
-0.139986970169995
-0.139100740693548
-0.137101539535667
-0.135292230504754
-0.140910049724459
-0.143478966993591
-0.14223937407393
-0.142402845390184
-0.143478966993591
-0.146211355578975
-0.147698936611049
-0.147698936611049
-0.143473752359928
-0.139258997376132
-0.143072722198586
-0.143478966993591
-0.143478966993591
-0.139258997376132
-0.139258997376132
-0.143478966993591
-0.138320273920659
-0.139258997376132
-0.13709111026833
-0.135039027758673
-0.132575485820353
-0.135039027758673
-0.135039027758673
-0.135039027758673
-0.135972536580486
-0.139258997376132
-0.145045115173037
-0.151286266870901
-0.113165049919986
-0.0743251670548424
-0.0358658431889353
0.0335039220449627
0.1201341247485
0.261800028174337
0.470159944137966
0.641725772386908
0.779143437915334
0.853862662421765
0.667031257299294
0.302334776245477
0.0346270746782522
-0.109080919026214
-0.181851876929838
-0.210133109931132
-0.217231785788602
-0.24514771631874
-0.241165692919083
-0.24222655799424
-0.223010493839466
-0.196156938145104
-0.157311840646283
-0.132423953532042
-0.115153086795481
-0.104201938904108
-0.101279270819005
-0.0961734590978576
-0.090049234386007
-0.0886193619666295
-0.0886193619666295
-0.0843993923491709
-0.0843993923491709
-0.0843993923491709
-0.0828436734370813
-0.0801794227317124
-0.0790351632482846
-0.0759594531142538
-0.0752266530594898
-0.0691024283476461
-0.0675195138793367
-0.0652939181588543
-0.0591696934469839
-0.0608937109362354
-0.0632995442618782
-0.0618968673987291
-0.0623865066019806
-0.0665282964448544
-0.060404071732984
-0.0632995442618782
-0.0583315180614231
-0.0590795746444197
-0.054934467301298
-0.0506396354095026
-0.0489785411666066
-0.046419665792044
-0.0518892702237319
-0.0517057151183442
-0.0413615207890229
-0.0379797265571269
-0.0299665032791057
-0.0337597569396684
-0.0295397873222098
-0.0295397873222098
-0.0295397873222098
-0.0295397873222098
-0.0261274800338555
-0.0210998480872927
-0.0210998480872927
-0.0197295814140146
-0.0126599088523756
-0.0123862349444033
-0.00843993923491709
-0.00435775513815288
0
0
0.00421996961745855
0.0107385000963239
0.0159363277534549
0.0155077146631416
0.0253198177047513
0.0253198177047513
0.0255610814228547
0.035784643893101
0.0419088686049714
0.0538664904590343
0.0625972572635974
0.0729414515928945
0.0790656763047649
0.089409870634062
0.092839331584088
0.102037369296537
0.112002514387102
0.113939179671381
0.128470933428269
0.130819058141215
0.140719382851978
0.146843607563823
0.157187801893146
0.163312026604993
0.164578815080883
0.167120536793788
0.169250799078034
0.181499248501771
0.181644145789537
0.17473755717139
0.177238723933259
0.174326097742723
0.177238723933259
0.16700701670183
0.154758567278133
0.142994542424001
0.134481638048168
0.12216022348353
0.0998331088773303
0.076974935977481
0.0628222314593673
0.0409795414227632
0.0218569135707732
0.00348423943522733
-0.0106684650829039
-0.0290411392184409
-0.0431938437365809
-0.0615665178721092
-0.0757992992982554
-0.0904435401530121
-0.100296198145673
-0.111131928811638
-0.117256153523507
-0.127600347852806
-0.133724572564674
-0.136218627559439
-0.148467076983176
-0.147698936611049
-0.149781532177175
-0.151918906228508
-0.153590042365969
-0.156138875845966
-0.153178582937302
-0.15930280764915
-0.160358845463425
-0.160358845463425
-0.160358845463425
-0.160358845463425
-0.15616417426876
-0.160358845463425
-0.160358845463425
-0.156138875845966
-0.156138875845966
-0.155032241186101
-0.151918906228508
-0.15330925669091
-0.160358845463425
-0.164295099278344
-0.155982903669586
-0.156011132219841
-0.158582333995153
-0.159819642408633
-0.156138875845966
-0.156138875845966
-0.15709246845691
-0.157500997758092
-0.151918906228508
-0.151918906228508
-0.151788232474891
-0.149733865459049
-0.159797274113327
-0.156138875845966
-0.152611151332224
-0.151918906228508
-0.148802641143432
-0.152719456790507
-0.156138875845966
-0.155749784712634
-0.147332213773022
-0.147676568315717
-0.151918906228508
-0.151918906228508
-0.14622850924064
-0.143478966993591
-0.144537934935335
-0.150662159647186
-0.14997638068928
-0.139258997376132
-0.14793498569546
-0.151918906228508
-0.151918906228508
-0.147698936611049
-0.147698936611049
-0.147698936611049
-0.144477296195171
-0.148604862503872
-0.151918906228508
-0.147204470146891
-0.145877688552141
-0.143478966993591
-0.145466229123476
-0.147698936611049
-0.145054769694814
-0.151178994406664
-0.146534593338492
-0.14654756536054
-0.144231850837486
-0.147698936611049
-0.143820391408824
-0.147698936611049
-0.155998805819102
-0.151918906228508
-0.151918906228508
-0.151918906228508
-0.151918906228508
-0.145676334163813
-0.14217455369416
-0.143478966993591
-0.143478966993591
-0.147887318977334
-0.151918906228508
-0.147922013673432
-0.151918906228508
-0.151918906228508
-0.151918906228508
-0.15509287992626
-0.150202387879115
-0.143478966993591
-0.147698936611049
-0.150049991451474
-0.151883565911145
-0.147698936611049
-0.151542787117202
-0.151918906228508
-0.151918906228508
-0.149932289719912
-0.159159807494786
-0.158948411211893
-0.151918906228508
-0.155845118148862
-0.154116919019994
-0.156138875845966
-0.156138875845966
-0.152448067388735
-0.156138875845966
-0.156138875845966
-0.160358845463425
-0.157490955863527
-0.156691050922789
-0.160358845463425
-0.160358845463425
-0.160358845463425
-0.156409619626447
-0.158725334149525
-0.152601109437657
-0.156138875845966
-0.153012568866321
-0.156138875845966
-0.156138875845966
-0.156138875845966
-0.156138875845966
-0.147723589412583
-0.149590865304692
-0.151918906228508
-0.151918906228508
-0.151918906228508
-0.149836956283675
-0.159112140776668
-0.156138875845966
-0.158700681348003
-0.152164997207487
-0.158289221919341
-0.160358845463425
-0.156138875845966
-0.156138875845966
-0.156138875845966
-0.156138875845966
-0.156138875845966
-0.158959098727748
-0.164578815080883
-0.159761288174652
-0.156231924776021
-0.160358845463425
-0.160358845463425
-0.158773000867633
-0.156138875845966
-0.164578815080883
-0.167657455342398
-0.163815889342419
-0.160358845463425
-0.160358845463425
-0.158103124059244
-0.160298852344561
-0.15429461387045
-0.15941594036836
-0.158926042916577
-0.152801818204705
-0.156138875845966
-0.153213277633373
-0.156138875845966
-0.153624737062038
-0.156138875845966
-0.151933517135447
-0.147698936611049
-0.147698936611049
-0.151294411632028
-0.151918906228508
-0.151918906228508
-0.152787207297769
-0.153366319682315
-0.147698936611049
-0.147698936611049
-0.147698936611049
-0.147698936611049
-0.143845044210327
-0.145017144871253
-0.147698936611049
-0.153045624677504
-0.153107902302578
-0.151918906228508
-0.151918906228508
-0.156442675437635
-0.155942736091315
-0.147806596448043
-0.153715501485898
-0.148737175142366
-0.150469208268492
-0.159428266769098
-0.15516519944591
-0.157674769217441
-0.159796628492037
-0.156138875845966
-0.151768148685784
-0.149753949248182
-0.147959638496993
-0.155206012645437
-0.156811037160546
-0.153151000008308
-0.156138875845966
-0.160358845463425
-0.15763395601788
-0.148108111533516
-0.151918906228508
-0.156136591339764
-0.154236905257755
-0.148112680545913
-0.150679958930143
-0.152744109592034
-0.148777988341927
-0.151918906228508
-0.151918906228508
-0.151918906228508
-0.147698936611049
-0.147698936611049
-0.151763579673388
-0.151918906228508
-0.151918906228508
-0.151918906228508
-0.151918906228508
-0.150992896546558
-0.142038407058376
-0.144508067500166
-0.149500100880823
-0.143375876168967
-0.139258997376132
-0.143170598389549
-0.145074853483947
-0.147698936611049
-0.144663394055282
-0.147698936611049
-0.14692596897802
-0.143478966993591
-0.147337428406685
-0.143478966993591
-0.143478966993591
-0.147698936611049
-0.147698936611049
-0.149141781052466
-0.148571806692681
-0.148730321623797
-0.151918906228508
-0.159738919879342
-0.156138875845966
-0.160150379308006
-0.154026154596142
-0.151918906228508
-0.147698936611049
-0.151304453526597
-0.147698936611049
-0.147698936611049
-0.145235652921243
-0.149136308170287
-0.143478966993591
-0.145850105623145
-0.143534391100084
-0.147698936611049
-0.147698936611049
-0.150370686456281
-0.151151411477667
-0.147698936611049
-0.147698936611049
-0.14697363569615
-0.143478966993591
-0.15160506474227
-0.145480840030429
-0.147601318668624
-0.147698936611049
-0.147698936611049
-0.147698936611049
-0.147698936611049
-0.143478966993591
-0.140590993604559
-0.139258997376132
-0.139258997376132
-0.139098197938844
-0.132973973226975
-0.134788367767295
-0.135039027758673
-0.135039027758673
-0.143478966993591
-0.143478966993591
-0.146037584119649
-0.131054203355802
-0.126599088523756
-0.126599088523756
-0.139266754764499
-0.145390979476367
-0.143882669033886
-0.144979520047702
-0.151103744759547
-0.147698936611049
-0.147698936611049
-0.142801332796812
-0.134095218793792
-0.131085232909325
-0.137209457621182
-0.139258997376132
-0.139258997376132
-0.142922222904367
-0.151918906228508
-0.148667140128938
-0.142542915417072
-0.142099304047034
-0.143478966993591
-0.148336661478064
-0.156025743126775
-0.149901518414936
-0.151620579519031
-0.151918906228508
-0.155429089707825
-0.156138875845966
-0.153040151795318
-0.151918906228508
-0.149231641606524
-0.151918906228508
-0.147367295841878
-0.143478966993591
-0.147698936611049
-0.147698936611049
-0.147698936611049
-0.144341795180658
-0.139258997376132
-0.139258997376132
-0.139888964854784
-0.146013189566652
-0.160358845463425
-0.149745029741458
-0.111069869704683
-0.0664889930058844
-0.0174951953111417
0.045137918766929
0.141057310979279
0.310499849654488
0.522594019422685
0.686164423677078
0.817496869953257
0.84170261345455
0.574172278962284
0.209966251586834
-0.00785849268088874
-0.137527301959345
-0.202925780973087
-0.215218450490386
-0.231555073390103
-0.248978207430054
-0.253522060428319
-0.252961869714594
-0.23244863315166
-0.198281727547287
-0.159133088705115
-0.129418149287253
-0.114849674576574
-0.108725449864736
-0.102601225152867
-0.101861571579527
-0.105499240436464
-0.101279270819005
-0.103354367245268
-0.0975405373951664
-0.0902829989642279
-0.092839331584088
-0.0940915091530178
-0.0907464358749044
-0.0843993923491709
-0.0789094458798525
-0.0679487725909369
-0.0717394834967953
-0.0675551124451999
-0.0759594531142538
-0.0721331436425258
-0.0744488581655771
-0.0751543335398577
-0.0684420769367596
-0.0650863558732207
-0.0632995442618782
-0.0632995442618782
-0.0632995442618782
-0.0611190725048052
-0.0509101209414827
-0.0548596050269611
-0.0548596050269611
-0.051997188309248
-0.0515977970328223
-0.0421996961745855
-0.0393493476091152
-0.0379797265571269
-0.0379797265571269
-0.037856551943371
-0.0337597569396684
-0.0337597569396684
-0.0321437866601964
-0.0260195619483279
-0.0223043589380961
-0.0222110517595379
-0.0253198177047513
-0.0226225111882027
-0.0161166944828396
-0.00843993923491709
-0.00843993923491709
-0.00234558195824339
-0.00377864275362889
0.00146292823055033
0.00421996961745855
0.00527143841934031
0.0113956631312126
0.0210998480872927
0.0210998480872927
0.0295397873222098
0.0316725923611719
0.0377968170730117
0.0456423873951725
0.0542652361141803
0.061699347007677
0.0739477964313684
0.0861962458550911
0.0956420134314382
0.0980332358501371
0.107890462855152
0.109870225845183
0.122118675268885
0.134367124692597
0.138175634881395
0.146951525649346
0.154232594493905
0.163419944690512
0.169544169402375
0.178318033912645
0.185678663168176
0.183440482798422
0.185601129014881
0.198338572020552
0.198338572020552
0.20114328012559
0.201658088627382
0.2005509374705
0.194118602403093
0.19293391709292
0.180685467669183
0.168437018245498
0.156188568821761
0.14792951281329
0.130017991082172
0.111645316946643
0.0949681735015124
0.0675135245001533
0.0480873553050014
0.0297146811694546
0.0113420070338802
-0.00703066710168665
-0.021211212797294
-0.04184391910092
-0.0540923685246246
-0.0663408179483475
-0.0751643754344208
-0.0770686305288307
-0.0862062877496433
-0.0977570191874586
-0.103881243899309
-0.113939179671381
-0.111748666019739
-0.109719210053922
-0.118159149288839
-0.121842458606212
-0.126599088523756
-0.123327238635053
-0.122379118906298
-0.125239509366337
-0.12605441258677
-0.124828049937668
-0.134905811250353
-0.128781586538509
-0.126599088523756
-0.127567033793141
-0.125909386174745
-0.132609922267929
-0.126599088523756
-0.125795995207049
-0.127793815728525
-0.130819058141215
-0.128523169158766
-0.130799232600619
-0.13315459820489
-0.123241688844827
-0.129545028773987
-0.135039027758673
-0.132916006365772
-0.129564854314617
-0.134388976490892
-0.128264751779023
-0.122617710745415
-0.126599088523756
-0.126599088523756
-0.124867701018898
-0.122379118906298
-0.125279160447563
-0.122379118906298
-0.122379118906298
-0.122379118906298
-0.122379118906298
-0.119977854593041
-0.11833024886923
-0.126599088523756
-0.126599088523756
-0.120800773450368
-0.12512435038948
-0.124265316469229
-0.118159149288839
-0.127354515122358
-0.125499694755241
-0.126599088523756
-0.128847310788075
-0.126666580782483
-0.126599088523756
-0.126599088523756
-0.12939375473423
-0.123269530022357
-0.122379118906298
-0.122379118906298
-0.121776734356646
-0.118159149288839
-0.122379118906298
-0.124474299121699
-0.126599088523756
-0.12406283969303
-0.130187064404873
-0.129546796783148
-0.126599088523756
-0.130819058141215
-0.130819058141215
-0.129920373139747
