-0.0551251865747346
-0.0565180320401981
-0.0736609308126866
-0.0602145222973691
-0.0582948183042468
-0.0679466312218571
-0.0680895489509166
-0.0557501504429296
-0.0686697004305323
-0.0745717301390006
-0.0688574305481639
-0.0669377265550348
-0.0630002132282681
-0.0630002132282681
-0.0656877988186544
-0.0569467852273626
-0.0616606607147567
-0.0708752398818016
-0.0615540748108985
-0.0557053380543642
-0.0669377265550348
-0.0688126181596058
-0.0672235620131679
-0.0684286773609785
-0.0708752398818016
-0.0669377265550348
-0.0640539302836556
-0.0637232824369573
-0.0644378710822829
-0.0718926251119875
-0.0848036945362266
-0.0866252931888686
-0.076233449935847
-0.0349301321116747
-0.0011348612691587
0.0493103720716632
0.132586783976698
0.240228306177857
0.417413996310446
0.595201618193207
0.740827837768133
0.84266177418154
0.764633325006954
0.433042818034361
0.146073091612943
-0.011084651628103
-0.095801130958876
-0.13404381252922
-0.152223467230383
-0.171499241803751
-0.182358579640948
-0.177294685608362
-0.177742809494071
-0.162099342090836
-0.134118885751414
-0.104519112431913
-0.0791899098576817
-0.0505457482530595
-0.045215389460864
-0.0305275337725274
-0.0272682772658836
-0.0236250799606005
-0.0313208570598448
-0.0258754318004351
-0.0270890277115954
-0.0183843459455289
-0.0188300602594346
-0.0196875666338338
-0.0142954343263531
-0.00787502665353351
-0.00787502665353351
-0.0037861150343437
0
0
0.00239326956890811
-0.00664206004386638
0.002320605918471
0.0108121158768416
0.00787502665353351
0.00787502665353351
0.012989804066235
0.021455872334547
0.0118210205436499
0.015750053307067
0.0193121063985561
0.0261612672585682
0.0172688553748769
0.0167674385372388
0.0224817381280685
0.0203210110653784
0.0260353106562079
0.0317496102470514
0.0354376199409008
0.0392406961019572
0.0393751332676676
0.0462134039925231
0.045991751621471
0.049383035722039
0.0468153357424606
0.0341513603793091
0.0521687266529134
0.0590626999015013
0.0553383583824229
0.0648835853961886
0.0632775681230516
0.0729354520322083
0.085963997495458
0.077634775964669
0.0748127532085684
0.0755443029806072
0.0862752746436395
0.0951955377892252
0.106624136970884
0.11415155465102
0.123803367568617
0.129517667159458
0.131294453423523
0.137008753014363
0.142723052605199
0.151186711301708
0.165375559724204
0.170106396338288
0.185472508846715
0.194919630519986
0.200633930110815
0.209543303121234
0.219937555946022
0.221714342210098
0.230419023976151
0.241017968045305
0.246732267636135
0.251555138599167
0.252508340742242
0.259937653081884
0.267490512452055
0.271688419546906
0.265268011874087
0.274213716709716
0.2734845765095
0.26490344177398
0.259189142183144
0.253474842592303
0.243520233089872
0.22585288536146
0.197281387407313
0.181671842257474
0.16677081476147
0.144378701410519
0.124609990562918
0.101674057557567
0.0758071063205085
0.0545813669203347
0.0535082791664306
0.0347981045178103
0.0177509015139983
0.0120366019231557
0.00476957801111709
-0.00665902117056558
-0.0118125399803003
-0.0147581097669544
-0.0244099226845542
-0.0275625932873673
-0.0401769371183232
-0.0472501599212011
-0.0472671210479003
-0.0511876732479678
-0.0476171395931292
-0.0419028400022856
-0.042561726123879
-0.0482760257147225
-0.0483850211903836
-0.0524715232377562
-0.0590626999015013
-0.0671957107513017
-0.0647709285008126
-0.0552511431770954
-0.0590626999015013
-0.055635083975724
-0.0551251865747346
-0.0581688617018832
-0.0590626999015013
-0.0564029655729813
-0.0639982277599132
-0.066323652822007
-0.063115279695462
-0.0669377265550348
-0.0632690875597018
-0.0575547879688586
-0.0518404883780288
-0.0584970999767811
-0.0669377265550348
-0.0630002132282681
-0.0655170298277193
-0.0626441236915069
-0.0569298241006774
-0.0629445107045357
-0.0691263048796049
-0.0634120052887629
-0.0602702248211293
-0.0614087475100212
-0.0708752398818016
-0.0681174002127869
-0.06634061394872
-0.0606263143578821
-0.059489043516878
-0.0649477684832705
-0.059233468892441
-0.0511876732479678
-0.0545704767851676
-0.0511876732479678
-0.0541865359865406
-0.0638383489041506
-0.0590929607351984
-0.0525502578797335
-0.0652311943695863
-0.0589924458228734
-0.0569722269174253
-0.0590626999015013
-0.0590626999015013
-0.0590626999015013
-0.0579835411560651
-0.0522692415652253
-0.0518828911947769
-0.0526531823638539
-0.0514989503961499
-0.0551251865747346
-0.0589900362510559
-0.0612960906146368
-0.0521008821461127
-0.0525078550629719
-0.0520282184956678
-0.0551251865747346
-0.0524121592942948
-0.0438649468121838
-0.0519083328848256
-0.0552935459938568
-0.0590626999015013
-0.0553407679542404
-0.0590626999015013
-0.055724708752869
-0.0511876732479678
-0.0482336228979641
-0.0559185098620378
-0.0513523712473755
-0.0488876898759056
-0.0608140444755214
-0.0551760699548319
-0.0611979852741501
-0.055483685683313
-0.0579617608857312
-0.0630002132282681
-0.0600970462583724
-0.0658113458492019
-0.0656369154385473
-0.0590626999015013
-0.0590626999015013
-0.0590626999015013
-0.0667027744770125
-0.0708752398818016
-0.0640030469035477
-0.0630002132282681
-0.0660523689187664
-0.0633720120438441
-0.0538558881398375
-0.0590626999015013
-0.0567784258082603
-0.051311220278511
-0.0570255198693472
-0.0553855803428189
-0.056641579070727
-0.0590626999015013
-0.0461177082238357
-0.0578588364015737
-0.0590626999015013
-0.064113294227103
-0.0669377265550348
-0.0647963701908615
-0.0630002132282681
-0.051610355443642
-0.0543185635804442
-0.0564986613416534
-0.0622129609324943
-0.0639897471965598
-0.0697040467873992
-0.0696640535424731
-0.0630002132282681
-0.0667160741839976
-0.0630002132282681
-0.0705506630266215
-0.0660317463723663
-0.0556714158009519
-0.0630002132282681
-0.0660075565301905
-0.0700286236425692
-0.06431432405174
-0.0634628886688729
-0.0691771882597027
-0.0786715318933573
-0.0692461904904473
-0.0630002132282681
-0.0659433734430947
-0.0708752398818016
-0.0708752398818016
-0.0680108143089429
-0.0715789383919603
-0.0748127532085684
-0.0702357244587391
-0.0630002132282681
-0.066873543467939
-0.0731001500315953
-0.0638964609997146
-0.0643288756066125
-0.0669377265550348
-0.071819961461528
-0.0748127532085684
-0.0663769457739355
-0.06533778027343
-0.0588858599190295
-0.0609860653143384
-0.0743985515762565
-0.0637983556592201
-0.0724485867494293
-0.0815020352128216
-0.072825204708628
-0.066135922704382
-0.0655788033429928
-0.0752306162605941
-0.0787502665353351
-0.0747449087017718
-0.0651270180375674
-0.0665877080098061
-0.0748127532085684
-0.0684056452427474
-0.0719180668020118
-0.0748127532085684
-0.0741538670869749
-0.0684395674961454
-0.0669377265550348
-0.0689894581420637
-0.0632182041795911
-0.0640660722667062
-0.0708752398818016
-0.0552111499321783
-0.0472501599212011
-0.0551251865747346
-0.0497717956642955
-0.0427966782019145
-0.0370823786110766
-0.0313680790202415
-0.0294714071453296
-0.031500106614134
-0.0306123394060346
-0.0453425979111164
-0.0421717143337293
-0.042292851792445
-0.0425556551323466
-0.0419089109938182
-0.0476232105846615
-0.0511876732479678
-0.0511876732479678
-0.0515933943169423
-0.0366221127422874
-0.0462849099190096
-0.0590626999015013
-0.053183702311251
-0.0646123014929293
-0.0538970391087068
-0.0544227399124571
-0.0664774606862608
-0.061069619099958
-0.0743513296158464
-0.0653147481552068
-0.0697997425560666
-0.0748127532085684
-0.0748127532085684
-0.0708752398818016
-0.0708752398818016
-0.0704040838778594
-0.0646897842870178
-0.0630002132282681
-0.0704562191058288
-0.0860318420022664
-0.0679151185402767
-0.0727707540327791
-0.0715243935921614
-0.0687460255006848
-0.0780380874618267
-0.0698348225334089
-0.0593909381763824
-0.0630002132282681
-0.0668820240312887
-0.0612791294879456
-0.066058439910288
-0.077487039091956
-0.0795738506563358
-0.0435620561034427
-0.0060376245981399
0.0343937294207498
0.107657419727729
0.201879321075524
0.369900157697104
0.564186343785766
0.728518982465606
0.854601710859988
0.847370454029492
0.592525421594027
0.266029351860174
0.0627879167726735
-0.0685426802281451
-0.129609795632358
-0.161565254847681
-0.176888964539372
-0.184721588376158
-0.181125613031271
-0.177913578485011
-0.161170329789964
-0.135485037678973
-0.104310759767908
-0.089612013944391
-0.0576455704699874
-0.0373149211172888
-0.0316006215264459
-0.028147563910632
-0.0236250799606005
-0.0275625932873673
-0.021424359652972
-0.0148416635525705
-0.00912736396173127
-0.00839947560940316
-0.0118125399803003
-0.00773451849629156
-0.00393751332676676
-0.000243432641385323
0
0
0.00114941282405446
0.00393751332676676
-0.00393751332676676
0.00114700325223337
0.015750053307067
0.0135917358161947
0.0236178512451495
0.0275625932873673
0.016909104418404
0.00926546254715176
0.0244814286110684
0.0344311248459098
0.0259335438960072
0.015750053307067
0.0229480749883726
0.0361534604341101
0.0492655596830076
0.0284345570927122
0.0245819435233663
0.04172484229588
0.0497451962502988
0.0521008821461127
0.0411022879995089
0.0578116144411775
0.0664580899877428
0.0630002132282681
0.0630959089969311
0.0669377265550348
0.0596391899614306
0.0659772956964936
0.0774058948781753
0.0905628065156354
0.0819186464169606
0.0801915858090506
0.0891227390897978
0.0984378331691689
0.0963243280668679
0.106171193941513
0.112458322172564
0.117263074284955
0.13262918679339
0.140935376205952
0.135889601024007
0.135414877724279
0.151936474048282
0.170084616067926
0.173056785268579
0.165371898304503
0.161438046397437
0.17877474627911
0.187852478708633
0.196875666338338
0.19985515837839
0.219019527904228
0.23356687543532
0.239753488754047
0.238462410048801
0.259926762946703
0.258330383960872
0.252000852913072
0.26670085058445
0.278129449766126
0.281381383433387
0.275625932873673
0.287438472853973
0.280080572316908
0.271980325996559
0.277694625587401
0.264181530289275
0.239071570514236
0.232313286279239
0.227110041813344
0.201175246069436
0.168666234788508
0.148175706580066
0.128339151225646
0.113505968236422
0.0858803495859097
0.0630861765857125
0.0516575774040388
0.0417708124084018
0.0261006514672498
0
-0.0117387186059069
-0.0228511273718248
-0.0196875666338338
-0.0330601537747205
-0.0472501599212011
-0.0393508493015956
-0.0254079372161959
-0.0418011673659988
-0.0407740497246352
-0.05283975475756
-0.0422976709360939
-0.0589174667245604
-0.0748127532085684
-0.0748127532085684
-0.0745656591474821
-0.0688513595566456
-0.0669377265550348
-0.0613602737017407
-0.0658961514826975
-0.0696192411539029
-0.0760360815309472
-0.0879466327278238
-0.0708037339553032
-0.0713633570124431
-0.0657531396297016
-0.0635210948883323
-0.0826877798621019
-0.071714533281646
-0.0708752398818016
-0.0774228560048518
-0.0765241045376653
-0.0766549744075964
-0.0819586396618942
-0.073738413606777
-0.0540895883699949
-0.0475566179257351
-0.070681532896567
-0.0669377265550348
-0.0669377265550348
-0.056354491764715
-0.0449258925830372
-0.0570655131142636
-0.0602532636944305
-0.0568838539881435
-0.0645747178198241
-0.0511876732479678
-0.0531667411845513
-0.0551251865747346
-0.0551251865747346
-0.0517532731727158
-0.0463429278906538
-0.0294616747340958
-0.046621628757241
-0.0642707635110491
-0.0529086628643626
-0.0354376199409008
-0.0514251290217563
-0.0651015763475187
-0.0521614038135082
-0.0462170654122103
-0.0479586775750085
-0.0404434018779269
-0.0490027563430985
-0.0655690709317734
-0.0566015858257965
-0.0545244125487313
-0.051404506475357
-0.0666870651981561
-0.0613069807498174
-0.0451826249314484
-0.0524776883531953
-0.0739613178256876
-0.0581373490203056
-0.0551251865747346
-0.0551251865747346
-0.0528069902280949
-0.0474076292051427
-0.0492534176999568
-0.0472501599212011
-0.0503507894199659
-0.0517980855612812
-0.0484165338719553
-0.0482445130331412
-0.051970106400093
-0.0551251865747346
-0.0511876732479678
-0.0533629518655394
-0.0550960834649988
-0.0472501599212011
-0.0472501599212011
-0.0525950702682853
-0.0583093698591146
-0.0541017303530443
-0.0511876732479678
-0.0472501599212011
-0.0424175565469329
-0.0320112558630054
-0.0393751332676676
-0.027947691809942
-0.0453281404801616
-0.0624879062554492
-0.0576541451572309
-0.0660414787835883
-0.0590626999015013
-0.056405375144808
-0.0506910755539765
-0.044976775963135
-0.0435379603851597
-0.0530771164074066
-0.0551251865747346
-0.053619684213923
-0.0577522504977169
-0.0568195767771319
-0.0511876732479678
-0.0479877806847581
-0.0587308943308278
-0.0590626999015013
-0.0590626999015013
-0.047340942422294
-0.0542362616426876
-0.0630002132282681
-0.0537626019429916
-0.0511876732479678
-0.0502090294148534
-0.0444947298240136
-0.0439073496289196
-0.0472501599212011
-0.0393751332676676
-0.0433502302675342
-0.0472501599212011
-0.0449162542957399
-0.0472501599212011
-0.042092979691756
-0.0453680396011493
-0.0551251865747346
-0.0525126742066205
-0.0472501599212011
-0.0517073030601904
-0.055057342067938
-0.0493430424771018
-0.043628742886265
-0.0472501599212011
-0.0440126836848919
-0.0483269090948098
-0.0483341378102859
-0.0472501599212011
-0.0472501599212011
-0.0469412923448495
-0.0433126465944343
-0.051037526803415
-0.0517217604911344
-0.0472501599212011
-0.0472501599212011
-0.0472501599212011
-0.0481839913657466
-0.0511876732479678
-0.0522874545398044
-0.0590626999015013
-0.0513536230952589
-0.0570679226860886
-0.0553431775260716
-0.0535663912620028
-0.0511876732479678
-0.052362527762071
-0.0551251865747346
-0.0511876732479678
-0.0511876732479678
-0.0476571328380474
-0.0533714324288893
-0.0472271278029838
-0.0451124649767285
-0.0508267645675582
-0.0511876732479678
-0.0511876732479678
-0.0511876732479678
-0.0483789501988657
-0.0557731825611474
-0.056637917651026
-0.0548611313869495
-0.0511876732479678
-0.0511876732479678
-0.0511876732479678
-0.0477539863306705
-0.0485231197757987
-0.0481379271292974
-0.0463611408652317
-0.0433126465944343
-0.0433126465944343
-0.0433126465944343
-0.0434337840531464
-0.0472501599212011
-0.0472501599212011
-0.0393751332676676
-0.0393751332676676
-0.0405051753932021
-0.0404058182048372
-0.0322462079410409
-0.0379605075318702
-0.0393751332676676
-0.0393751332676676
-0.0432908663240865
-0.0393751332676676
-0.0393751332676676
-0.0393751332676676
-0.0425229847268293
-0.0433126465944343
-0.0433126465944343
-0.0472501599212011
-0.0448701900592911
-0.0435318893936409
-0.0472501599212011
-0.0472501599212011
-0.0417005583297788
-0.0393751332676676
-0.0420844991284066
-0.0393751332676676
-0.0393751332676676
-0.0393751332676676
-0.0398353991364416
-0.0410755944615977
-0.0315764316842804
-0.0391438426093186
-0.03968274899615
-0.041843476058847
-0.0328832196683504
-0.0282444174032594
-0.00823950262970675
-0.00393751332676676
-0.00145943812436271
0
0.00209413440377634
6.65926589270081e-05
-0.00171019360514951
-0.00742449319597967
-0.00920127946005619
-0.0118125399803003
-0.00787502665353351
-0.00787502665353351
-0.00393751332676676
-0.00627267080009742
-0.00770059624289308
-0.00393751332676676
-0.011393519204326
-0.0102452641042241
-0.00787502665353351
-0.015750053307067
-0.015750053307067
-0.0188881723550122
-0.0209024143928536
-0.0236250799606005
-0.0236250799606005
-0.0197190793154009
-0.0290499767975312
-0.0354376199409008
-0.031500106614134
-0.0347012510252133
-0.0354376199409008
-0.0354376199409008
-0.0308436300643718
-0.0275625932873673
-0.0312275708629995
-0.0255132712721703
-0.0236250799606005
-0.0252904611771707
-0.0275625932873673
-0.0236250799606005
-0.0236250799606005
-0.0227275803412817
-0.0196875666338338
-0.0196875666338338
-0.0196875666338338
-0.0196875666338338
-0.0196875666338338
-0.0196875666338338
-0.00939749014104431
-0.0283087887381669
-0.0433126465944343
-0.0403973376414878
-0.0104679800752732
0.0295321170605318
0.0706441374713291
0.134229415446698
0.220287950986965
0.369258609197694
0.575531859801205
0.752495615190922
0.882129412417708
0.930069124026876
0.747320937328372
0.411029948699916
0.169244475552927
0.00445917621519385
-0.073237279140926
-0.109625503405182
-0.118353217289493
-0.140130005059505
-0.13387545311007
-0.124835210229748
-0.103754798130451
-0.0813529523683335
-0.0439689348963367
-0.00845990315290372
0.00402231896026253
0.0115982104486501
0.0193884314687017
0.0236250799606005
0.0236250799606005
0.0247187902609052
0.0246920967229899
0.0211071056371927
0.0325357048188742
0.031500106614134
0.0336027215812607
0.0393170211720899
0.0393751332676676
0.0428705937002299
0.0433126465944343
0.0433126465944343
0.0491517450636898
0.0523976077394268
0.0511876732479678
0.055874949321328
0.0631831242022588
0.0649780293169816
0.0630002132282681
0.0661517261071192
0.0708752398818016
0.0720670555226003
0.0837185589231837
0.0771345168509931
0.0708752398818016
0.0748127532085684
0.0748127532085684
0.0787902597802516
0.0863213388800727
0.0905628065156354
0.0905628065156354
0.0905628065156354
0.0887230890123472
0.100151688194006
0.0977728760560573
0.0993838065967504
0.106312859822702
0.106312859822702
0.106312859822702
0.11192423492939
0.11763853452023
0.119415320784295
0.122062913129769
0.126906406639201
0.132620706230041
0.141228440379563
0.137812966436836
0.145826091675781
0.147710621567649
0.153071335317469
0.15903147712153
0.161438046397437
0.166522562976437
0.172236862567266
0.181888675484876
0.190142823793376
0.196875666338338
0.20118748217642
0.212616081358109
0.218335200092585
0.227598253067918
0.237638825927792
0.243353125518634
0.25501310948255
0.269375136467837
0.275625932873673
0.28041979485088
0.299487216760179
0.305201516351015
0.314705592395896
0.318938579468107
0.325750250778943
0.330751119448407
0.333773014305197
0.339487313896042
0.342563659428708
0.342563659428708
0.342563659428708
0.338626146101941
0.336756073641033
0.327394915325206
0.314480184481262
0.307126039487807
0.293740058516003
0.270926514817259
0.25378361604476
0.239135753601343
0.218494890700541
0.186320188685986
0.169412336115427
0.146654400816507
0.123797202453193
0.110158244676571
0.0898953457067996
0.0777909934007405
0.069340634411254
0.0545498542387676
0.0464834360479071
0.0352462284035616
0.0295319288127314
0.0238176292218888
0.0181033296310588
0.0224720998407658
0.0184872704296857
0.0127729708388449
0.00475386873228715
0.0130613099927195
0.0113801253734067
0.0145026292664253
0.0156046318822695
0.00211225325443101
0.00360204633640665
0.0103712207065936
0.00465692111575456
0.00787502665353351
0.00504086191438227
0.00393751332676676
0.00393751332676676
0.00393751332676676
0.00393751332676676
0.00393751332676676
0.00225517098349776
0.00345912860734469
0.00787502665353351
0.00479983884481789
0.00576643481879741
0.00912129297021285
0.00393751332676676
0.0062448195382251
0.00772844750477272
0.00778424415242531
0.00811238830340043
0.00547693794097636
0.00787502665353351
0.00671954283795074
0.00393751332676676
0
0
0
0
3.66141970052263e-06
0.00571796101053068
0.00787502665353351
0.0092715335386706
0.0118125399803003
0.0118125399803003
0.00902318762971844
0.0111839146924186
0.00546961510157988
0.0041821978160216
0.00585355590020895
0.00393751332676676
0.00163752995469636
0.0107661457642991
0.0118125399803003
0.0118125399803003
0.0118125399803003
0.00651967073727522
0.000485707558822288
0.00620000714965245
0.00787502665353351
0.00787502665353351
0.00787502665353351
0.0118125399803003
0.00854114149059496
0.0140338828343072
0.0168001089427567
0.012539270608676
0.015750053307067
0.0118125399803003
0.0118125399803003
0.0118125399803003
0.0118125399803003
0.0118125399803003
0.00922672115009521
0.0118125399803003
0.0118125399803003
0.0118125399803003
0.0123963528796175
0.0181106524704459
0.0196875666338338
0.0177109082690817
0.0119966086782382
0.015750053307067
0.0123805494768673
0.00908380342103189
0.00882697694872962
0.0118125399803003
0.0118125399803003
0.00787502665353351
0.0100927080878469
0.015750053307067
0.015750053307067
0.015750053307067
0.0103627401432433
0.00787502665353351
0.00787502665353351
0.00787502665353351
0.00651119017393408
0
0.00757704921236287
0.00393751332676676
8.59633574444387e-05
0.00169082290661927
0.000469904156072635
0.00263063121877432
0
0.000922941309364731
0.00123778575332903
0.000539000510737025
0.0016217265519581
0
0
0.00370863224024924
-0.00154790517755139
-0.000612821885145222
0.00277354894784444
0
0
0.00255680984436787
0.00354143054508912
0
0
0
0
0
0
0.00393751332676676
0.00393751332676676
0.00330040747553567
0
0
0
0
0
0
0
0.00303885598348963
0
0
0
0
0.00393751332676676
0.00393751332676676
0.00393751332676676
0.00544060611574644
0.014434784759643
0.00787502665353351
0.00787502665353351
0.00393751332676676
0.0114735056941592
0.0150475125208704
0.00787502665353351
0.00787502665353351
0.0118125399803003
0.00829163785768974
0
0
0.00393751332676676
0.00118449280141077
0
0
0
0
0
0
0
0.00272025599591985
0
-0.00310419679454668
0
-0.00348813759317439
0
0
0
0
0.00247923292636034
-0.00323506666447775
-0.00286317372498941
0
-0.0053183109330633
-0.00441098477863063
0
0
0
0.00393751332676676
0.000461423592734678
0.00393751332676676
0.000845364391351399
0
0
0.00339003225267945
0.00232426733815809
0
0
0.00371711280359952
0.00393751332676676
0.00393751332676676
0.00393751332676676
0.00688674453311173
0.00393751332676676
0.0090680941422013
0.0070658999635028
0
0.00785440410713331
0.00214010451630402
0.00357419507453796
0.00393751332676676
0.00712776760267652
0.00290798611355769
0.00280631347728069
0.00722944023895215
0.00151514064811513
0.00393751332676676
0.00393751332676676
0.00775273147086033
-0.00165449108139523
-0.000506235981300886
0.00266696304399972
0
0
0
0.00393751332676676
0.00393751332676676
0.0079937545404142
0.0118125399803003
0.0118125399803003
0.0103009666279703
0.00458666703714102
0.00393751332676676
0.00103309450899078
0.000743691755075419
0.00645799134591366
0.00787502665353351
0.00787502665353351
0.00396170316894675
0
0.0035293826859608
0
0
0.000984714824632369
0.00393751332676676
0
0
-0.00372068009939078
0.00199361949145085
0.00770791908228101
0
0
0
0
0
0
0
0
-0.00393751332676676
-0.00208681156438271
0
0
0
0
0
-0.00323863396026818
0
0
0
0.00386851109600831
0.0112905947201714
0.0227191939018282
0.0328239498488253
0.0354376199409008
0.0354376199409008
0.0354376199409008
0.0348816583034641
0.0291673587126256
0.0273905724485583
0.0236250799606005
0.0273506733275495
0.0220602136563503
0.0196875666338338
0.0224441544549785
0.013772143094445
0.0134065093942862
0.0171137956627662
0.0196875666338338
0.0196875666338338
0.0236250799606005
0.0218191905867875
0.0196875666338338
0.0182656180586485
0.012551318467807
0.0147120455305094
0.00899774593966927
0.0111584730023695
0.00301332016952965
0.000270126179303056
0.00393751332676676
0.00393751332676676
0.00227454168202209
0
0
0
0
0
0.000511149248859198
0.00393751332676676
0.00406472177699776
0.00787502665353351
0.00787502665353351
0.00787502665353351
0.00787502665353351
0.0185514535167812
0.00992425454483691
0.012564712298726
0.0132210947245797
0.00787502665353351
0.00787502665353351
0.00395322260559647
0
-0.00707572649862041
-0.00236648190709002
0.029952483808311
0.0650218722293974
0.107617614730595
0.166639351910974
0.266670090894159
0.430326477593059
0.650890061007554
0.830152642045362
0.952123144330732
0.992795926151753
0.770043820886964
0.433823274585203
0.191591305895696
0.028829886883053
-0.0535193575494281
-0.0708752398818016
-0.0948299040890595
-0.106532008498
-0.0987393779061323
-0.0876123234614248
-0.0729316964885696
-0.0507599836608262
-0.0192985243198195
0.00605959311631079
0.0182341995009899
0.0282094315498052
0.037537825336196
0.0432521249270253
0.0415963819977607
0.0393751332676676
0.0393751332676676
0.0424842433297746
0.0511876732479678
0.0484625039844872
0.0556896287755218
0.0614039283663556
0.0590626999015013
0.0590626999015013
0.0627967738317989
0.0630002132282681
0.0663503463599375
0.068127132624011
0.0708752398818016
0.0756182184789199
0.0787502665353351
0.0712967643535268
0.0770110639443514
0.0749255042278676
0.0866252931888686
0.0794429807863932
0.0826877798621019
0.0858949952647105
0.091609294855533
0.0945003198424021
0.0945003198424021
0.0969396536477535
0.0984378331691689
0.100493226175891
0.102375346495936
0.106312859822702
0.106312859822702
0.108887882641634
0.114187886476236
0.115091457087074
0.120805756677903
0.122062913129769
0.124359329206062
0.126000426456536
0.127912901734199
0.133627201325023
0.135403987589105
0.14111828717993
0.141750479763603
0.144671859708072
0.153563019743903
0.156100458889746
0.158253957236968
0.169682556418636
0.169320301766451
0.176789701474919
0.181125613031271
0.190386256434769
0.196100556025601
0.205752368943209
0.21424513074944
0.221736216604364
0.233164815786017
0.240655901640945
0.254095081440737
0.263663246448833
0.269377546039654
0.278495271714103
0.28868117187486
0.300434442035648
0.307984797710064
0.316334641787256
0.323825727642134
0.333002723136119
0.334870386025176
0.342563659428708
0.346208108581848
0.354376199409008
0.354376199409008
0.359413494027601
0.362251226062542
0.362251226062542
0.362251226062542
0.357981813041205
0.350158827491734
0.342615700532767
0.333451910621909
0.316309011849405
0.297825308715496
0.274968110352174
0.253067775551539
0.233191226952219
0.210334028588855
0.189826539253727
0.164619631862166
0.143728201728399
0.126585302955895
0.109442404183378
0.0990167328009177
0.0909066599454229
0.0737637611729326
0.0661237807213339
0.0578187490327449
0.0507576682128932
0.0428365773229343
0.0353915557044526
0.031500106614134
0.0279004698495469
0.0196875666338338
0.0229032625997927
0.0196875666338338
0.0196875666338338
0.0124835680849191
0.0181978676757687
0.015750053307067
0.015750053307067
0.015750053307067
0.0134924727517438
0.015750053307067
0.0118125399803003
0.0148853182171775
0.00605092430515924
0.00268883743825086
0.00840313702909157
0.0118125399803003
0.0154617141532055
0.00595407081252169
0.00393751332676676
0.00787502665353351
0.0111888279599773
0.00787502665353351
0.00787502665353351
0.00787502665353351
0.0104209463627246
0.0118125399803003
0.0118125399803003
0.00787377480566354
0.00393751332676676
0.00749233770277441
0.00787502665353351
0.00787502665353351
0.00888518316822274
0.00902559720155076
0.00393751332676676
0.00393751332676676
0.00393751332676676
0.00191845214527364
0
0.00393751332676676
0.000525606679819878
0.00250235916847345
0.00787502665353351
0.0030702745411591
0
0
0
0
0
0
0.00393751332676676
0.000668524408902132
0.00110826185517595
0.00682256144600504
0.00321319227021988
0
0
0
0
0
0
0
0
0
0
0
-0.00235818959154271
-0.00787502665353351
-0.00590077786061988
-0.00768854838376497
-0.00393751332676676
-0.00393751332676676
-0.00666865945785861
-0.000954359867026682
-0.00869745305058382
-0.00921332731918926
-0.00437599892519072
-0.00787502665353351
-0.00388296852696739
0
0
0
0
0
0
-0.00393751332676676
-0.00148121839471653
0
-0.00207235413342116
-8.83729292883686e-05
0.00224909999197292
0
0
0.0030812588002257
0.00603396317845863
0
-0.000536590938908371
-0.00393751332676676
-0.00393751332676676
-0.00200807692241833
0
0
0
-0.00277595851966102
0
0
0
0.00748135344368591
0.00176705385285175
0
-0.00178651867529041
-0.00393751332676676
-0.00393751332676676
-0.00393751332676676
-0.00393751332676676
-0.00114208998466694
0
0
-0.0041882688075518
-0.00584748490869009
-0.0001331853178405
-0.00393751332676676
-0.000517126116469571
0
-0.00303644641166986
-0.00306179397781054
0.00530501122608158
0.00689146955287923
0
0
-0.00188462401578265
-0.000276103046927291
0.00637434343637993
0.000660043845551885
0
0
0
0
-0.00787502665353351
-0.00574937956819767
-0.00393751332676676
-0.0017417062867095
-0.00393751332676676
-0.00393751332676676
-0.000802961574617349
-0.000973824689458562
-0.00668812428028709
-0.00787502665353351
-0.00550835649864225
-0.00414345641897438
-0.0098577560097957
-0.015572055600647
-0.0125524761917973
-0.0112506014752512
-0.0118125399803003
-0.0118125399803003
-0.0118125399803003
-0.0118125399803003
-0.00438447948854096
-0.0100987790793657
-0.0118125399803003
-0.0099727283530971
-0.0114916245448195
-0.0132684108088761
-0.0189827103997239
-0.0118125399803003
-0.0146612562743299
-0.0150620640757493
-0.0142773154757008
-0.0154460048743784
-0.0138933746770717
-0.015750053307067
-0.015750053307067
-0.015750053307067
-0.0144371002075519
-0.00872280061672432
-0.0136705645820723
-0.0169817680688842
-0.015750053307067
-0.015750053307067
-0.0118125399803003
-0.0118125399803003
-0.00809783674853297
-0.00859944183398373
-0.0124192908739288
-0.0118125399803003
-0.00886571834579111
-0.0118125399803003
-0.0118125399803003
-0.0118125399803003
-0.0118125399803003
-0.0196693536592649
-0.015750053307067
-0.0121782678043605
-0.0118125399803003
-0.0118125399803003
-0.00890214429492148
-0.0118125399803003
-0.0124557168230619
-0.015750053307067
-0.015750053307067
-0.015750053307067
-0.0119372447347905
-0.00952710816309642
-0.0118125399803003
-0.0118125399803003
-0.0148574669553187
-0.0148658533947605
-0.0118125399803003
-0.015750053307067
-0.015750053307067
-0.015750053307067
-0.015750053307067
-0.015750053307067
-0.0133217037608042
-0.015750053307067
-0.0118125399803003
-0.00891053073436324
-0.0118125399803003
-0.00929447153298783
-0.00858970942277035
-0.015750053307067
-0.0118391393943109
-0.0118125399803003
-0.0118125399803003
-0.0145450320831671
-0.0228305989493335
-0.0196875666338338
-0.0196875666338338
-0.0124109044344827
-0.0181252040253086
-0.015750053307067
-0.0177412632266795
-0.0234555628175291
-0.0220178108396154
-0.0196875666338338
-0.0184642383114777
-0.015750053307067
-0.0196875666338338
-0.0196875666338338
-0.0192321199087358
-0.015750053307067
-0.0156070414540708
-0.00972331884408699
-0.0190626968895729
-0.0182232152419094
-0.015750053307067
-0.0128929505735956
-0.0186072501644452
-0.0196875666338338
-0.0172143105750829
-0.015750053307067
-0.015750053307067
-0.0196161548312442
-0.0196875666338338
-0.0196875666338338
-0.0236250799606005
-0.0236250799606005
-0.0226875870963642
-0.0224018457621336
-0.0309465545485268
-0.0298929316170408
-0.0311608840801777
-0.0197322848985062
-0.0231964208972987
-0.0283751931492889
-0.020285836964112
-0.02086608256763
-0.02658038215846
-0.0275625932873673
-0.0275625932873673
-0.0244463486336876
-0.0336875272147371
-0.0314734130762151
-0.0275625932873673
-0.0275625932873673
-0.0250446189639633
-0.0275625932873673
-0.0207231648385702
-0.0236250799606005
-0.0236250799606005
-0.0211966362904292
-0.0196875666338338
-0.0196875666338338
-0.0158662774982087
-0.0196875666338338
-0.0196875666338338
-0.015750053307067
-0.00658983069196084
0.00787502665353351
0.0025360931740542
0.00444625300379451
0.0101605525946441
0.00762542889673614
0.00190158514248152
0.00393751332676676
0
0
0
-0.00291048980928727
-0.0031877505801707
0
-0.000731643895937458
-0.00787502665353351
-0.0039556321774271
-0.00569618074017675
-0.00787502665353351
-0.00137472661478365
-0.0102405390844633
-0.015750053307067
-0.015750053307067
-0.015750053307067
-0.0181336845886589
-0.0194646624149274
-0.0137503628241042
-0.0193654934743915
-0.0252408296449343
-0.0241700573389507
-0.0248568888463069
-0.0245539981375798
-0.0244729480476779
-0.0275625932873673
-0.0275625932873673
-0.0253218797348362
-0.0276425797771865
-0.0296433338602303
-0.0311961523053263
-0.0354376199409008
-0.0321880017215433
-0.031500106614134
-0.0343657840348625
-0.0347326695828842
-0.0339818432362352
-0.0351166103815133
-0.029402310790662
-0.0275625932873673
-0.0258487382625243
-0.0271157212495016
-0.0341599350665619
-0.0455885342482169
-0.0492957263927981
-0.0269760884445337
0.00562361121363414
0.0297829666652096
0.0848248818260435
0.165125745482456
0.301568117343691
0.514080587113249
0.720199653356601
0.878990794513093
0.977604808797309
0.878090875909168
0.574871618295403
0.287262159965076
0.0876859848253023
-0.0358597091561102
-0.086311700592747
-0.101329046403857
-0.122062913129769
-0.118858107298993
-0.111055650172037
-0.0995544814637866
-0.0839847413110271
-0.0586906187141933
-0.0261816074331971
-0.00376905978375181
-0.00382976969897543
0.00166904263626353
0.00738334222711136
0.00658992481589906
0.00699940142848404
0.0127137010193074
0.015750053307067
0.0202047868742101
0.0236250799606005
0.0237583594023495
0.0294726589931991
0.0351869585840242
0.0378490083604648
0.0288317975983766
0.0287047773959427
0.031500106614134
0.0330165932340233
0.0393751332676676
0.0393751332676676
0.0393751332676676
0.0433030083071243
0.0454830119444426
0.0468565808352602
0.0551251865747346
0.0551251865747346
0.0551251865747346
0.0579012392183041
0.0584473743206201
0.0551251865747346
0.0592940846837579
0.0630002132282681
0.0667851705386623
0.0748127532085684
0.0714117366968015
0.0748127532085684
0.0778298289217062
0.0866252931888686
0.0839921582743581
0.0905628065156354
0.092812000631515
0.0945003198424021
0.0963655731596545
0.0984378331691689
0.0920441190342604
0.104274616190451
0.106312859822702
0.109187017806761
0.110963804070836
0.116678103661687
0.118125399803003
0.120231676189823
0.125945975780645
0.131660275371496
0.137374574962319
0.144427269342728
0.152740687470762
0.158454987061605
0.164169286652437
0.169883586243277
0.177945185290482
0.189373784472162
0.200802383653833
0.204750692991871
0.213426459896002
0.220500746298938
0.231962204133957
0.243160576257332
0.25362392543681
0.259875879566606
0.264668583819861
0.27609718300151
0.283544614191824
0.291079354711319
0.298910726700262
0.311435539877938
0.318938579468107
0.316053625472755
0.324597270659102
0.331419737981195
0.334688632775174
0.338341468367781
0.334688632775174
0.338526883037498
0.331333586375947
0.323359296657944
0.312413901339374
0.300985302157675
0.280772034720139
0.263629135947591
0.241497322240897
0.215228311354467
0.196025106307752
0.165576401301009
0.146414535470954
0.127737031227857
0.111502616333778
0.0938351744814729
0.0797603289261158
0.0607000416083781
0.0461006529732485
0.03822678404367
0.0232434546098971
0.0157512110310285
0.0100369114401898
0.0043226118493573
0
0
0
0
-0.00787502665353351
-0.00787502665353351
-0.00787502665353351
-0.00787502665353351
-0.011668464527278
-0.0134452507913329
-0.015750053307067
-0.0130613099927055
-0.015750053307067
-0.0166148825208432
-0.0170459511559747
-0.0162309417222142
-0.0219452413130655
-0.0195906190173157
-0.0176237871876679
-0.0196875666338338
-0.0172398463890406
-0.0196875666338338
-0.015750053307067
-0.015750053307067
-0.0164719647917825
-0.0171888688850515
-0.0118125399803003
-0.0139272969304544
-0.015750053307067
-0.015750053307067
-0.0192576557226686
-0.0196875666338338
-0.0196875666338338
-0.0206505011881193
-0.0236250799606005
-0.015750053307067
-0.0181058333267895
-0.0194925136768064
-0.015750053307067
-0.015750053307067
-0.0196875666338338
-0.0196875666338338
-0.0236250799606005
-0.0206443360726919
-0.0118125399803003
-0.0170061461588594
-0.0196875666338338
-0.0196875666338338
-0.0235729447326326
-0.0196875666338338
-0.0196875666338338
-0.0196875666338338
-0.0196875666338338
-0.0196875666338338
-0.0168497404749859
-0.016427152403203
-0.0196875666338338
-0.0118125399803003
-0.0138824845418917
-0.015750053307067
-0.0174360570700294
-0.0196875666338338
-0.0183855036694987
-0.015750053307067
-0.0196875666338338
-0.0223824750636226
-0.0196875666338338
-0.0196875666338338
-0.0237753205290484
-0.0237085396223059
-0.0196875666338338
-0.0196875666338338
-0.0230074389317964
-0.022465934725328
-0.0196875666338338
-0.0196875666338338
-0.0196875666338338
-0.015750053307067
-0.015750053307067
-0.015750053307067
-0.017534162410526
-0.0232484620013603
-0.0182873983290029
-0.0189270078759645
-0.0147338258008607
-0.0173985675208405
-0.0144854798919071
-0.0126931725968121
-0.0196875666338338
-0.0176624344608218
-0.0119481348699722
-0.0118125399803003
-0.00839456234183452
-0.0118125399803003
-0.0118125399803003
-0.0118125399803003
-0.00916244393909267
-0.00787502665353351
-0.00787502665353351
-0.00787502665353351
-0.00787502665353351
-0.0115340273615416
-0.0103142663349781
-0.011150086562917
-0.0118125399803003
-0.0118125399803003
-0.015750053307067
-0.015750053307067
-0.015750053307067
-0.015750053307067
-0.0196500770846414
-0.0196875666338338
-0.0196875666338338
-0.015750053307067
-0.0188821954873832
-0.015750053307067
-0.0212464560704617
-0.0230376056415938
-0.0196875666338338
-0.0200946336745856
-0.0275625932873673
-0.023805487238852
-0.0180911876480137
-0.0123768880571808
-0.015750053307067
-0.015750053307067
-0.015750053307067
-0.0131447696544372
-0.015750053307067
-0.0135287104530662
-0.0197481824251502
-0.0217876779052271
-0.0160733783143775
-0.0172035145638097
-0.0164573191130083
-0.015750053307067
-0.015750053307067
-0.015750053307067
-0.0132876873834979
-0.0121141788411575
-0.015750053307067
-0.015750053307067
-0.015750053307067
-0.015750053307067
-0.0144395097793834
-0.0148998697720448
-0.0148234505780125
-0.0145159289734184
-0.0191449047034083
-0.015750053307067
-0.0159087744388652
-0.0196875666338338
-0.0122629793139589
-0.0141984867098151
-0.0118125399803003
-0.015750053307067
-0.0128056412443823
-0.0149663683070732
-0.0092520687162401
-0.0114127957789338
-0.00787502665353351
-0.00787502665353351
-0.00787502665353351
-0.00787502665353351
-0.00787502665353351
-0.00787502665353351
-0.00787502665353351
-0.00507353231991483
-0.00787502665353351
-0.00303991958355079
-0.00864550607044509
-0.0176539538974732
-0.0119396543066219
-0.0118125399803003
-0.0186654563839289
-0.0184218354947296
-0.01270753590388
-0.015750053307067
-0.0130914767025074
-0.016247902848913
-0.0196875666338338
-0.0196875666338338
-0.0196875666338338
-0.0233550479051903
-0.0236250799606005
-0.0203415394878686
-0.0196875666338338
-0.0196875666338338
-0.0196875666338338
-0.0196875666338338
-0.0236250799606005
-0.0214933618837459
-0.0235960709747602
-0.0236250799606005
-0.0201005164183049
-0.0196875666338338
-0.0196875666338338
-0.0196875666338338
-0.022444248578873
-0.0190916117514827
-0.0181227944534771
-0.0196875666338338
-0.0196875666338338
-0.0196875666338338
-0.0196875666338338
-0.0196875666338338
-0.0145291345565248
-0.0118125399803003
-0.0236250799606005
-0.0210113157446204
-0.0231720428073075
-0.0219173900511831
-0.0235559836059356
-0.0215334492525558
-0.0272477488434054
-0.0236250799606005
-0.0236250799606005
-0.0236250799606005
-0.0293346545316975
-0.0268685330645307
-0.0236250799606005
-0.0272524738631598
-0.0215381742723102
-0.0196875666338338
-0.0236250799606005
-0.0201453288068812
-0.0196875666338338
-0.0227833769889285
-0.0226899966681957
-0.0196875666338338
-0.0236250799606005
-0.0236250799606005
-0.0196875666338338
-0.0216315545930513
-0.0236250799606005
-0.025185127121201
-0.0308994267120286
-0.0263864869253941
-0.0236250799606005
-0.0196875666338338
-0.0222565184612424
-0.0271543685226505
-0.0236250799606005
-0.0236493639266865
-0.0275625932873673
-0.0275625932873673
-0.0236250799606005
-0.0268189956561986
-0.0275625932873673
-0.0247526183904
-0.0203368144681142
-0.0236250799606005
-0.0196875666338338
-0.0196875666338338
-0.0196875666338338
-0.0236250799606005
-0.0236250799606005
-0.0248992916630532
-0.0275625932873673
-0.0245153508644259
-0.0302296504552755
-0.0270562631821692
-0.0213419635913214
-0.0196875666338338
-0.0196875666338338
-0.0196875666338338
-0.0236250799606005
-0.0203330589245183
-0.0146187593336733
-0.017628700455212
-0.0228777267858342
-0.0171634271950043
-0.0153866409309315
-0.0118125399803003
-0.0157295248845752
-0.0118125399803003
-0.00827949587465437
-0.010440222937348
-0.00472592334651668
-0.015750053307067
-0.015750053307067
-0.0163544887527666
-0.0173063449240733
-0.015970547954142
-0.0176902857227007
-0.015750053307067
-0.015750053307067
-0.015750053307067
-0.0196875666338338
-0.0136751954779217
-0.00618410962300127
0.00524448955865746
0.0118125399803003
0.0118125399803003
0.0118901168983155
0.015750053307067
0.0121189038609119
0.00787502665353351
0.00787502665353351
0.00502399491158095
0.00787502665353351
0.00393751332676676
0.00641684037703646
0.00393751332676676
0.00603289957840564
0.00787502665353351
0.00616358120052195
0.000449281609695397
0.00132750465438249
0.00393751332676676
0
0
-0.00393751332676676
-0.00393751332676676
-0.00805070891203054
-0.00790760293516829
-0.000208258540130292
-0.00864309649858569
-0.0190953672950727
-0.015750053307067
-0.0127886801176887
-0.0149494071803726
-0.0143899723710592
-0.0232083746325352
-0.0196875666338338
-0.0236250799606005
-0.0236250799606005
-0.0200387429030266
-0.015750053307067
-0.0125476570481204
-0.010770870784045
-0.00787502665353351
-0.00721729825590456
-0.00637202798845523
-0.00760123905452916
-0.00393751332676676
-0.00393751332676676
-0.00393751332676676
-0.00393751332676676
-0.010440411185143
-0.0249284888967245
-0.0306013551469601
-0.0115093668998162
0.0183241066498001
0.0491872015366775
0.0962016281513075
0.183841115770378
0.320233761975188
0.541325239280466
0.740192708518566
0.890809781980475
0.989918859739149
0.873443903689797
0.547792445356105
0.266547193318435
0.0837361412676612
-0.0312952930086992
-0.0744047166916592
-0.0858333158733275
-0.100994548889635
-0.0952802492988018
-0.0974409763614928
-0.0861793906271827
-0.0690364918546522
-0.0447244862628474
-0.0148341524653732
0.00401152294896334
0.00409247891496901
0.0111186680052352
0.0191486602470025
0.0196875666338338
0.0196875666338338
0.0236250799606005
0.0236250799606005
0.0275625932873673
0.0298093778314173
0.031500106614134
0.031500106614134
0.0351397366236378
0.0393751332676676
0.042630822478544
0.0444076087425988
0.0501219083334466
0.0472501599212011
0.0497379675348193
0.0515147537988759
0.0551251865747346
0.0551251865747346
0.0607826259178614
0.0595035009478482
0.0603986851192341
0.0598874417464763
0.0630002132282681
0.0602713825451009
0.0641364204692209
0.0708752398818016
0.0669377265550348
0.0688986756409511
0.0708752398818016
0.0748127532085684
0.0781665477599243
0.0826877798621019
0.0856576336148287
0.0874344198789076
0.0905628065156354
0.094925505733813
0.0984378331691689
0.102375346495936
0.102375346495936
0.10597016411686
0.107382192033009
0.102375346495936
0.110250373149469
0.113077309173137
0.11879160876398
0.124505908354808
0.122345181292122
0.126000426456536
0.126000426456536
0.131613053411084
0.137327353001935
0.140395312095143
0.151823911276842
0.158407765101193
0.164122064692044
0.16931307305097
0.17621330553891
0.196875666338338
0.196875666338338
0.204261512261152
0.214157915544126
0.223181197297733
0.232313286279239
0.238163369007548
0.253529481515999
0.264958080697666
0.276006306376509
0.283877765734243
0.295306364915921
0.301024231802551
0.310288536625733
0.321717135807413
0.326813606121641
0.332761794190457
0.338626146101941
0.347122569327874
0.350438686082241
0.350201230308468
0.346501172755474
0.350292201057389
0.345547782364632
0.331811971095373
0.324320885240493
0.30684599264948
0.292726240581672
0.272944135903096
0.250565416383125
0.233422517610576
0.212247567466651
0.189390369103253
0.166533170739862
0.146126102193193
0.12081877401317
0.103002531688163
0.0887398618912068
0.0805292741234499
0.0633863753509011
0.0551251865747346
0.0509004918180556
0.0355827589940222
0.0332285131938445
0.0249220414095957
0.0170945190881501
0.0134450625435463
0.00787502665353351
0.00787502665353351
0.00336092914294179
0
0
0
0
0
0
-0.00393751332676676
-0.00393751332676676
-0.00787502665353351
-0.00787502665353351
-0.00787502665353351
-0.00566457393471447
-0.00393751332676676
-0.00393751332676676
-0.00754081151104131
-0.00643245553197261
-0.00393751332676676
-0.00787502665353351
-0.00503961006651535
-0.00787502665353351
-0.00297207507675883
-0.000290748725701352
-0.00186997833700674
0
-0.00619143246240081
-0.00393751332676676
-0.00523716671926863
-0.00479858699694705
-0.00485322592064131
-0.00787502665353351
-0.00787502665353351
-0.00787502665353351
-0.0118125399803003
-0.00988792271959927
-0.00787502665353351
-0.00393751332676676
-0.00393751332676676
-0.00787502665353351
-0.00200798279852733
-0.00471030819158054
-0.00532544552465501
-0.000388854066186459
-0.00826879398727456
-0.00393260005921112
-0.00356339906325162
-0.00787502665353351
-0.00393751332676676
-0.00711205832383451
-0.00292369539239188
-0.00279060419843693
-0.00330763619101648
0
-0.00418344966388894
-0.00787502665353351
-0.00787502665353351
-0.00951380845608498
-0.0152281080469363
-0.0132403712992222
-0.0109066539215387
-0.0188166664285387
-0.0131023668376891
-0.0118125399803003
-0.00954879430955143
-0.015750053307067
-0.0138702484349473
-0.0118125399803003
-0.0118125399803003
-0.00853988964275
-0.00898694992839688
-0.0147012495192465
-0.00714704417729746
-0.00894705080740102
-0.0118125399803003
-0.0118125399803003
-0.00401731156881038
-0.00567440046982574
-0.00436135324641491
-0.00529045967119842
-0.00787502665353351
-0.0118125399803003
-0.0118125399803003
-0.0118125399803003
-0.0141743909915416
-0.0118125399803003
-0.0137904501929152
-0.0119953568303831
-0.0118125399803003
-0.00844178430224545
-0.00787502665353351
-0.00787502665353351
-0.00787502665353351
-0.00787502665353351
-0.0118125399803003
-0.00959360669812916
-0.00387930710728174
-0.00183499248354028
-0.00754929207439162
-0.00787502665353351
-0.00464718870453947
-0.00713884598561318
-0.015750053307067
-0.00719185656587869
-0.00639746967850615
-0.00817425594258511
-0.00973652442719169
-0.00787502665353351
-0.00787502665353351
-0.00787502665353351
-0.00656689269768133
-0.00702243354670177
-0.0069508334963104
-0.00393751332676676
-0.00787502665353351
-0.00787502665353351
-0.00771871509356679
-0.00393751332676676
-0.00393751332676676
0
0
-0.0067098104267421
-0.000995510835911669
0
0
0
0
-1.33938309076951e-05
-0.0021473332317907
0
-0.00140623929635146
-0.00393751332676676
0
0
-0.000638357699098778
-0.00635265728992492
-0.00393751332676676
-0.00596871649129585
-0.00406703722492158
0
0
0
-0.00304010783135553
-0.00569627486405402
-0.0091563729475738
-0.00099087994003262
-0.00787502665353351
-0.00393751332676676
-0.00393751332676676
-0.000272441627239896
-0.00243316868992401
0
0
0.00289719010227592
0
0
0.000352522240953787
0.00180820482172839
0
0
-0.0035221539704671
0
0
-0.00195497221830581
-0.00787502665353351
-0.00334396801624292
-0.00237033157458982
-0.00372790881487199
0
0
0
0
-0.00121850917871254
-0.00393751332676676
-0.00393751332676676
-0.00393751332676676
-0.00438814090822836
-0.00787502665353351
-0.00393751332676676
-0.0057809863736556
-0.00425476734256009
-0.00145953224826152
-0.000701194814420658
0
0
0.000691650651005125
0.0014690764116788
0
0
0
0.00170055531782981
0.00393751332676676
-0.00131661451920249
-0.00393751332676676
0.0058028607679136
0.00639362001098776
0
0
-0.00377272120345148
0.00194157838739811
0.000219148675310485
-0.00393751332676676
-0.000603089473938577
0.00117369679014172
0.000987030272563171
0
0.00256654225557899
0.00353169813388318
0.00218260145695265
0.0039156389325105
0
0
0.00282943971939992
0.00787502665353351
0.00290673426569139
0
0.00129367652489455
0.010298651180042
0.00367461586294407
0.00611905118363821
0.0156290099722625
0.00393751332676676
0.00737004252009992
0.0066032245229105
0.000888924932060914
0
0
0.00393751332676676
0.00165680652931731
0
0
0
0.00151282520019131
0.00393751332676676
0.00674614225197302
0.00103184266114233
0
0
0.00393751332676676
0.00393751332676676
0.00393751332676676
0.00218366505701961
0
0.00136990747113053
0.00079081959157575
0.000985966672501461
0.00117476039020034
0
0
0
0
0
0
0
0
0
0
0.00261983520749554
0.00393751332676676
0.00617340773563497
0.00787502665353351
0.00787502665353351
0.00424628677921153
0.00393751332676676
0.00718231240246141
0.0107284679673175
0.00215331009940234
0
0
0.000316190415726361
0.00393751332676676
6.77503829039769e-05
0.00564654920794688
0.00787502665353351
0.00787502665353351
0.00787502665353351
0.00975733522137747
0.0103141722110574
0
0.00233399974937749
0.00752848128020583
0.00195005895074842
0.00766435854157152
0.00474279034929132
0.00334290441618017
0.0169322306605573
0.0256054938689414
0.0362358564957638
0.0393751332676676
0.0389608375114319
0.0354376199409008
0.0393751332676676
0.0339537096026379
0.023978665801623
0.0236250799606005
0.0236250799606005
0.0246643395850244
0.0247465473988812
0.0236250799606005
0.0211929748707435
0.0236250799606005
0.0236250799606005
0.0236250799606005
0.0269535269457983
0.0280590968574506
0.0196875666338338
0.0166304976757776
0.0118125399803003
0.00913941182087494
0.00496231552019711
0.0141017273410983
0.011427159086042
-0.00190524656217068
-0.00393751332676676
0
0
0
0
0
0
0
0.00214626963172373
0.00393751332676676
0.0056998421598624
0.00787502665353351
0.00393751332676676
0.0102478619238346
0.0108180927444556
0.0106462601534401
0.0124230464175247
0.0181373460083573
0.0192344353566465
0.0118125399803003
0.0118125399803003
0.00231810222272913
-0.00679239473621148
0.00617735152705643
0.0377611060506833
0.0711953740889683
0.110280135126497
0.185604696451359
0.308661463836206
0.495116842679535
0.678373420796007
0.823307989720467
0.93565108541491
0.861786395184345
0.541483753339864
0.238869655924658
0.0652866427589261
-0.0184310690493146
-0.0557745285328844
-0.0651016704714258
-0.0785724570766791
-0.0730952367640397
-0.088346753424735
-0.0812909906052632
-0.0646545160618774
-0.0385644723580641
-0.0099929744039218
0.00957210879946316
0.0243725272592561
0.0358011264409326
0.0433126465944343
0.0433126465944343
0.0433126465944343
0.0433126465944343
0.0472501599212011
0.0472501599212011
0.0480568770394126
0.0537711766302456
0.0551251865747346
0.057324749158386
0.0630390487492232
0.0669377265550348
0.0705301346041276
0.0708752398818016
0.0708752398818016
0.0690332069305796
0.0776372796604047
0.0754765525977161
0.0836314378417533
0.0863454345983472
0.0847444247166801
0.0866252931888686
0.0882979972448196
0.0905628065156354
0.0905628065156354
0.0874972569942307
0.0914676289743282
0.0945003198424021
0.0950212015024658
0.103033169017462
0.106175918961266
0.102375346495936
0.102375346495936
0.106312859822702
0.109619432413652
0.110250373149469
0.110250373149469
0.110250373149469
0.112789064143166
0.118503363734007
0.124217663324842
0.12993196291568
0.132104643713624
0.129937939783303
0.139199835034656
0.144914134625489
0.148622578617944
0.148467707153625
0.149625506417137
0.154417052946392
0.16514051352226
0.163449878863436
0.172952797184367
0.177188099704504
0.183997455567413
0.190244590553566
0.202000364410047
0.208688206318638
0.211325002652834
0.220976815570449
0.228943970696839
0.240280441405655
0.245994740996479
0.251709040587328
0.264330801381543
0.278211939951693
0.284601992666888
0.287438472853973
0.292810170862848
0.304238770044548
0.319271731010532
0.327095968407887
0.334637843518971
0.336414629783055
0.338626146101941
0.347931884265714
0.355194870262464
0.352354916903486
0.358313712735775
0.358313712735775
0.355962751859717
0.346501172755474
0.344534152678026
0.331332240404197
0.325230526842821
0.312796496166242
0.29445445891351
0.271597260550189
0.254307970876715
0.235103419858166
0.20739443566984
0.190251536897333
0.173061322040509
0.150204123677169
0.130947813926279
0.113804915153756
0.0934450685674393
0.085569072437746
0.0798547728469151
0.064920886697546
0.0551251865747346
0.0508993340940944
0.0431199090853439
0.0355332215856579
0.0320752507023018
0.0241046224039832
0.024922323781271
0.0275625932873673
0.0236250799606005
0.0236250799606005
0.019158204410418
0.015750053307067
0.0199784094834002
0.0237181779096317
0.0159885726809077
0.0142117864168248
0.00849748682600051
0.00787502665353351
0.00787502665353351
0.0086454119465176
0.0118125399803003
0.015750053307067
0.0135868225486463
0.0118150436760262
0.0139707633472691
0.00825646375643664
0.00787502665353351
0.0110471620787681
0.0108011316177551
0.00787502665353351
0.0118125399803003
0.00940828615232385
0.00787502665353351
0.00787502665353351
0.0116721259469654
0.0118125399803003
0.0118125399803003
0.0118125399803003
0.0118125399803003
0.015750053307067
0.015750053307067
0.0122970898151348
0.015750053307067
0.00787502665353351
0.0116298172541136
0.0194042348714382
0.015750053307067
0.015750053307067
0.0146405396040351
0.0118125399803003
0.0125381128847031
0.015750053307067
0.0160916854128408
0.0175691482639754
0.015750053307067
0.015750053307067
0.015750053307067
0.015750053307067
0.0188773763437261
0.0187209706598626
0.015750053307067
0.0151673981317214
0.0141719814197102
0.0196875666338338
0.0216630672746173
0.0198727930557463
0.0141584934649098
0.00844419387407864
0.0208951856773732
0.0176562693453949
0.015750053307067
0.015750053307067
0.0161897907533483
0.0174710429234836
0.0158058499547228
0.0196875666338338
0.0196875666338338
0.0182389245207363
0.015750053307067
0.015750053307067
0.015750053307067
0.015750053307067
0.0182076000869732
0.0196875666338338
0.0176139606525531
0.015750053307067
0.014060388124419
0.00834608853356762
0.00654896209481174
0.0148950506284038
0.0166718368924569
0.0142904269348848
0.0162878960938314
0.0173729375829848
0.00787502665353351
0.00787502665353351
0.00787502665353351
0.00632827919994272
0.00726104704441501
0.00787502665353351
0.0108146195725554
0.00787502665353351
0.00787502665353351
0.00787502665353351
0.0100467379753027
0.0118015557212258
0.00966279717667989
0.015377096767516
0.0118125399803003
0.0118125399803003
0.0107926510544066
0.00787502665353351
0.0124484881075676
0.015750053307067
0.0120645473089413
0.0177788468997664
0.0158819867770498
0.015750053307067
0.0191716923652184
0.0144891413116258
0.0118125399803003
0.00569145572039113
0.0118125399803003
0.0118125399803003
0.0118125399803003
0.015750053307067
0.0100924257161511
0.00027485119907307
0.00787502665353351
0.00459630532443937
0.00617350185952773
0.0118125399803003
0.00787502665353351
0.00787502665353351
0.00787502665353351
0.00787502665353351
0.00397134145627324
0
0.00703948879727485
0.00515699198162895
0
0.00393751332676676
0.00393751332676676
0.0118125399803003
0.00944461797754187
0.0120197349203618
0.015750053307067
0.015750053307067
0.0118125399803003
0.0118125399803003
0.0118125399803003
0.0118125399803003
0.0101482223637872
0.00393751332676676
0.0113643219706669
0.0101000309272321
0.00774647223152493
0.00184106347507579
0.0111732128050507
0.0103554173038543
0.00787502665353351
0.00501069520458986
0.0107249947954208
0.00718578557433675
0.00640354067002152
0.0118125399803003
0.00973045343567108
0.000157281036112964
0.00169814574599662
0.00393751332676676
0.00525171827413781
0.00787502665353351
0.00787502665353351
0.00787502665353351
0.0152037299569541
0.0118125399803003
0.0155876707555832
0.0118125399803003
0.0118125399803003
0.00787502665353351
0.00787502665353351
0.00904631387184379
0.00886446649792985
0.00472485974644796
0.0104391593372811
0.0122159456013524
0.015750053307067
0.0118125399803003
0.0136087910667951
0.015750053307067
0.0146371605560373
0.0164984700819021
0.0089033961427757
0.0118125399803003
0.00851945534415286
0.0118125399803003
0.0118125399803003
0.0118125399803003
0.00799847956016772
0.00787502665353351
0.00787502665353351
0.00914441921232333
0.0118125399803003
0.0118125399803003
0.0118125399803003
0.0118125399803003
0.0118125399803003
0.0118125399803003
0.00991818355331308
0.00787502665353351
0.0133229556086584
0.015750053307067
0.00674855182380097
0.0126472966081457
0.0110700059492003
0.0103943469487181
0.015750053307067
0.015750053307067
0.0196622190676793
0.016184689237981
0.00828431501831434
0.0143825554077662
0.0118125399803003
0.015750053307067
0.015750053307067
0.0118125399803003
0.0118125399803003
0.0118125399803003
0.0138050017477808
0.0195193013386183
0.015750053307067
0.015750053307067
0.0196875666338338
0.0226889330681269
0.0258813145441572
0.0196875666338338
0.0289326890063033
0.0438421029417376
0.0511876732479678
0.0511876732479678
0.0548140035504618
0.0575970966617034
0.0453980180631502
0.0382934708264959
0.0325791712356649
0.0321978282566793
0.0354376199409008
0.0357514007848197
0.0414657003756453
0.0355779398503097
0.0349133592328314
0.0358917206942378
0.0275625932873673
0.0306620650621715
0.031500106614134
0.0287845756379589
0.0236250799606005
0.0236250799606005
0.0195167035189979
0.017697702685984
0.0196875666338338
0.0236250799606005
0.0202845851162518
0.015750053307067
0.015750053307067
0.0196875666338338
0.0145423401396417
0.00869879902234189
0.0201273982040065
0.0117845945945286
0.00967975830337689
0.0118125399803003
0.00929581750475404
0.015010117095584
0.0196875666338338
0.0168739303171791
0.0203404758878016
0.0211953844425749
0.0196875666338338
0.0176418119144373
0.015750053307067
0.0196875666338338
0.0196875666338338
0.0184096935116954
0.0126953939208441
0.00304358100325395
0.00801215576278166
0.0390075606150869
0.0744341021730922
0.107699417811504
0.172459550301208
0.263108884917433
0.423287619425809
0.619992422649018
0.770293992799782
0.898811141731742
0.919286261858146
0.670154145393079
0.328614855187435
0.132910071334586
0.00819549970684965
-0.03552683998534
-0.0657353031507378
-0.0724416404056324
-0.0921460740422366
-0.0876173308528889
-0.0877939825875536
-0.0678347555548453
-0.0392632576006734
-0.018790942366785
0.00406625599656343
0.0193679971701
0.0324135978839859
0.0393751332676676
0.0445457073280142
0.0502600069188428
0.0590626999015013
0.0590626999015013
0.059527879037832
0.0652421786286552
0.066856488217334
0.0648582378300261
0.0705725374208774
0.0654636427519059
0.0662510832954816
0.0748127532085684
0.0748127532085684
0.0787502665353351
0.0787502665353351
0.0826877798621019
0.0826877798621019
0.0865636137975127
0.0922779133883326
0.0945003198424021
0.0971066670951007
0.0945003198424021
0.0984378331691689
0.0984378331691689
0.0984378331691689
0.0984378331691689
0.102375346495936
0.104331476438201
0.11377869223535
0.112615697332599
0.106901397741772
0.106312859822702
0.112242929040844
0.118125399803003
0.118125399803003
0.118966133298508
0.128197579468358
0.129901513834179
0.124187214243344
0.129242910084292
0.13387545311007
0.137081510788702
0.141750479763603
0.141750479763603
0.14568799309037
0.14568799309037
0.150180404454517
0.15750053307067
0.15750053307067
0.15917082755479
0.168332207893838
0.174536940063228
0.180251239654075
0.181125613031271
0.183804812182217
0.194493569276268
0.209341209696505
0.220635277588542
0.226349577179393
0.228375772952472
0.235368039789356
0.246796638971005
0.257081802196269
0.262796101787099
0.269269896535741
0.283234777139274
0.29606460822585
0.309645548030763
0.31500106614134
0.324644492619488
0.330358792210324
0.328198065147629
0.333912364738462
0.335689151002543
0.341403450593375
0.354376199409008
0.354376199409008
0.358546349365889
0.36024180316836
0.362099921894027
0.355062748544665
0.347036417722618
0.334901522211156
0.320776950999653
0.313285865144729
0.296588492438348
0.28160632072849
0.256498676401461
0.228106616249313
0.212830222641958
0.194115040601873
0.168802893278294
0.154919345136313
0.144132388577877
0.115560890623638
0.0962937848615003
0.0791508860889568
0.070213755940614
