0
0
0
0
0.00328590757925651
0
0
0
-0.00248992729537109
-0.00383189957033505
-0.00209193715348639
-0.00408188786314192
0
-0.00353589587205628
0
0
0
0
0
0
0
0
0
0
0
0
0
0
0.00259191373908593
0.00408188786314192
0.00408188786314192
0.00408188786314192
0.00408188786314192
0.000444005547370798
0
0
0.00408188786314192
0.00123998583125623
0.000601963029331511
0.00652579975314294
0.00816377572628385
0.00816377572628385
0.00816377572628385
0.0122456635894258
0.015735544056112
0.0163275514525677
0.0132356611278822
0.00901572704851401
0.0176334639550274
0.0204094393157096
0.0181135292749096
0.0163275514525677
0.0163275514525677
0.0163275514525677
0.0163275514525677
0.0163275514525677
0.0152256118375378
0.0122456635894258
0.0122456635894258
0.0122456635894258
0.0122456635894258
0.0122456635894258
0.0162355206417115
0.0163275514525677
0.0199194183629688
0.0190575114078799
0.0131336746841674
0.0141535391211381
0.017613552689194
0.00871972335022812
0.0122456635894258
0.0120877061074777
0.00816377572628385
0.0120056309294846
0.00816377572628385
0.00816377572628385
0.00816377572628385
0.00816377572628385
0.0122456635894258
0.0122456635894258
0.0126536093642852
0.0140776568171377
0.0122456635894258
0.0103937590959965
0.00816377572628385
0.0148736371010232
0.00894980037731061
0.00710785151670991
0.00408188786314192
0.00816377572628385
0.00816377572628385
0.00790383180061797
0.00618378064948701
0.0121076173731995
0.00816377572628385
0.0117096272311988
0.0109397510869661
0.00816377572628385
0.0122456635894258
0.00674592114736665
0.00816377572628385
0.00816377572628385
0.00816377572628385
0.00816377572628385
0.00436793592846126
0.00816377572628385
0.0047659260704538
0.0011579106532587
0.00708174737705646
0.00408188786314192
0.00408188786314192
0.00408188786314192
0.00408188786314192
0.00408188786314192
0.00180588908805908
0.00408188786314192
0
0
0
0
0
0
0
0
0
0
0
0
0
0
0
0
0
-6.59266712033963e-05
-0.00217401233136784
0
0
0
0
0
0
0
-0.00408188786314192
-0.00192402403856813
0
0
0
-0.00136188354068837
-0.00408188786314192
-0.00504578126185691
-0.00816377572628385
0
0
-0.000167913114806931
-0.00408188786314192
-0.00408188786314192
-0.00161187183348819
-0.00753570855720069
0
0
0
-0.00265784041017334
-0.00816377572628385
-0.00816377572628385
-0.00818368699200119
-0.0103838034631379
-0.00816377572628385
-0.00408188786314192
-0.00738770670811575
-0.00709789588388137
-0.00408188786314192
-0.00474977756365975
-0.00816377572628385
-0.0122456635894258
-0.0122456635894258
-0.0122456635894258
-0.0122456635894258
-0.0158014707271993
-0.0163275514525677
-0.0131697344566787
-0.0113277855961082
-0.00816377572628385
-0.0117257757379928
-0.00816377572628385
-0.0122456635894258
-0.0122456635894258
-0.0122456635894258
-0.0163275514525677
-0.0129197461638791
-0.0163275514525677
-0.0163275514525677
-0.00893365187051645
-0.0122456635894258
-0.00816377572628385
-0.00816377572628385
-0.0122195594497731
-0.0122456635894258
-0.0122456635894258
-0.0122456635894258
-0.00898586014982211
-0.00918364016331628
-0.00938385029182288
-0.00816377572628385
-0.0106275988820022
-0.0122456635894258
-0.0101798305757082
-0.00816377572628385
-0.00983161859811689
-0.0122456635894258
-0.013515516319258
-0.0163275514525677
-0.0163275514525677
-0.0136137400040495
-0.0163275514525677
-0.0140117301460503
-0.0163275514525677
-0.0163275514525677
-0.0163275514525677
-0.0163275514525677
-0.0163275514525677
-0.0152057005718204
-0.0122456635894258
-0.0122456635894258
-0.0148114731888159
-0.0163275514525677
-0.0184953709100002
-0.0204094393157096
-0.0180973807680497
-0.0240212174918278
-0.0204094393157096
-0.0204094393157096
-0.0194355902841356
-0.0135117535603349
-0.0163275514525677
-0.0163275514525677
-0.0163275514525677
-0.0143077338442199
-0.0122456635894258
-0.0122456635894258
-0.0122456635894258
-0.0110218262649636
-0.00816377572628385
-0.0122456635894258
-0.0122456635894258
-0.0122456635894258
-0.0122456635894258
-0.0122456635894258
-0.0122456635894258
-0.0122456635894258
-0.0122456635894258
-0.0122456635894258
-0.0122456635894258
-0.0122456635894258
-0.0163275514525677
-0.0163275514525677
-0.0163275514525677
-0.0163275514525677
-0.0163275514525677
-0.0163275514525677
-0.0163275514525677
-0.0163275514525677
-0.0163275514525677
-0.0163275514525677
-0.0163275514525677
-0.0163275514525677
-0.0186993437974297
-0.0204094393157096
-0.0204094393157096
-0.0204094393157096
-0.0219852513766866
-0.0210735662573042
-0.0192316173967335
-0.0193473222322001
-0.0244913271788515
-0.0218695465411897
-0.0204094393157096
-0.0204094393157096
-0.0163436999593616
-0.0204094393157096
-0.0204094393157096
-0.0244913271788515
-0.0244913271788515
-0.0204094393157096
-0.0204094393157096
-0.0156957215246593
-0.0122456635894258
-0.00769609615427251
0
0.00391773750714681
0.00408188786314192
0.00408188786314192
0.0122456635894258
0.0091239063661645
0.0113638453686195
0.00271624156353038
-0.00504954402075292
-0.0145714405288017
-0.0203236013787889
-0.0143997646550765
-0.00470619227330202
-0.00408188786314192
-0.00745363337929908
-0.00703196921267775
-0.00705564323731849
-0.0115118472178205
-0.00558801049403486
-0.00816377572628385
-0.00816377572628385
-0.00816377572628385
-0.0099435606746249
-0.0122456635894258
-0.0108638687830201
-0.00494003205930746
-0.00914758039071673
-0.0207229241647006
-0.0285732150419935
-0.0261454516589024
-0.0244913271788515
-0.0244913271788515
-0.0244913271788515
-0.0244913271788515
-0.0244913271788515
-0.0204094393157096
-0.0204094393157096
-0.0204094393157096
-0.017731687639819
-0.0167653641260031
-0.0204094393157096
-0.0204094393157096
-0.0185276679237045
-0.012603831199886
-0.0122456635894258
-0.0122456635894258
-0.0133314546975458
-0.0163275514525677
-0.0163275514525677
-0.013797801625762
-0.0169071731010362
-0.0287548465485826
-0.028681394359644
0.00805449893729942
0.0495213560032893
0.0936597718714569
0.159685215431998
0.258318649020034
0.422364274861472
0.637180727829233
0.804147430420271
0.932513949473306
0.95596236531712
0.739128916809644
0.399878262989678
0.154170578735029
-0.0132162202067408
-0.089548017110201
-0.100334670945255
-0.126001389927956
-0.142474277942018
-0.134316695089658
-0.114317631663715
-0.0924580407555009
-0.0673311208899527
-0.0348364055818334
-0.00320869263128368
0.00920355142903384
0.0151273881527462
0.0163275514525677
0.0212950202954386
0.0285732150419935
0.0306589593214284
0.0326551029051354
0.0326551029051354
0.0361848059032562
0.0421086426269691
0.0449007664945612
0.0449007664945612
0.0476344892087965
0.0489826543577031
0.0489826543577031
0.053064542220845
0.0550022846511952
0.0533667387930663
0.053064542220845
0.0564462433698612
0.053064542220845
0.053064542220845
0.0538083142253087
0.059732150949095
0.0608825360845498
0.059334160807137
0.0612283179471289
0.0589361706651868
0.0648600073889644
0.0653102058102708
0.0685439051101057
0.0693920936734127
0.0693920936734127
0.0693920936734127
0.0718298126893621
0.0734739815365546
0.0734739815365546
0.0734739815365546
0.0775558693996966
0.0775558693996966
0.0787996179898759
0.0847234547135887
0.0857196451259804
0.0884073524347296
0.0938834208522643
0.0938834208522643
0.0980150868796994
0.102047196578548
0.102047196578548
0.107622821324669
0.113546658048382
0.119470494772094
0.122456635894258
0.119770261229303
0.131617934676729
0.139083953803918
0.142866075209967
0.146849739388318
0.158599189150951
0.166861188562026
0.176866913148919
0.18279074987271
0.189662331488315
0.198720311183276
0.209275790520055
0.218731760357101
0.228737484943956
0.234661321667668
0.244420820720748
0.248995159651657
0.255870504026187
0.266520444288918
0.272444281012717
0.278368117736459
0.286933646363551
0.290617544084692
0.300221515770803
0.306145352494568
0.31206918921828
0.314305365461928
0.31838725332507
0.32167692366325
0.321419409852603
0.31838725332507
0.317735512131444
0.309317985353339
0.293388424042773
0.283636450507641
0.269837316238201
0.247983918203573
0.230212408032435
0.207059290369748
0.18022227498592
0.159668596579582
0.138716928031826
0.120945417860689
0.103173907689552
0.0894842853812075
0.0717127752100703
0.0539412650389332
0.0433510585733534
0.0340355650676691
0.0221878916202051
0.013333884812674
0.0114919359521036
0.00556809922831696
0
-0.00219768635600813
-4.22526465624328e-05
-0.0058815840772011
-0.00816377572628385
-0.00816377572628385
-0.00816377572628385
-0.0112419476592748
-0.00816377572628385
-0.0122456635894258
-0.0122456635894258
-0.0120379279431829
-0.00816377572628385
-0.00816377572628385
-0.00573358222806479
-0.0116574189517772
-0.0122456635894258
-0.0122456635894258
-0.0122456635894258
-0.0122456635894258
-0.0122456635894258
-0.0122456635894258
-0.0163275514525677
-0.0163275514525677
-0.0163275514525677
-0.0163275514525677
-0.0163275514525677
-0.0152218490787306
-0.0122456635894258
-0.0122456635894258
-0.00969600249690271
-0.00816377572628385
-0.0103154466768671
-0.0122456635894258
-0.0122456635894258
-0.0122456635894258
-0.0122456635894258
-0.0122456635894258
-0.0122456635894258
-0.0122456635894258
-0.0116859532066584
-0.00816377572628385
-0.00832549596715074
-0.0122456635894258
-0.0122456635894258
-0.0138513425489786
-0.0163275514525677
-0.0122456635894258
-0.00919602591121683
-0.00816377572628385
-0.00816377572628385
-0.00816377572628385
-0.00816377572628385
-0.0122319451976436
-0.00816377572628385
-0.00816377572628385
-0.00816377572628385
-0.00816377572628385
-0.00922346269475095
-0.0122456635894258
-0.00882547255276875
-0.0122456635894258
-0.0122456635894258
-0.0122456635894258
-0.0122456635894258
-0.0105379981861583
-0.00816377572628385
-0.0122456635894258
-0.0122456635894258
-0.0122456635894258
-0.0122456635894258
-0.0158138564751863
-0.0122456635894258
-0.0163275514525677
-0.0163275514525677
-0.0125279488959299
-0.0122456635894258
-0.00884405117469188
-0.00816377572628385
-0.00816377572628385
-0.00816377572628385
-0.00816377572628385
-0.0118799704611296
-0.010371417715151
-0.0162952544388638
-0.0104360117425078
-0.00816377572628385
-0.00816377572628385
-0.00816377572628385
-0.00816377572628385
-0.00816377572628385
-0.00816377572628385
-0.00570614544461689
-0.00429957914224361
-0.00610413558650188
-0.00408188786314192
-0.00408188786314192
-0.0075854867214938
-0.0109820037335289
-0.00816377572628385
-0.00902944544018018
-0.00953804501495899
-0.00408188786314192
-0.00408188786314192
-0.00816377572628385
-0.00816377572628385
-0.00816377572628385
-0.0122456635894258
-0.0122456635894258
-0.0122456635894258
-0.00928805672207555
-0.00888144359109456
-0.0122456635894258
-0.0163275514525677
-0.0141659248691256
-0.0122456635894258
-0.0163275514525677
-0.0163275514525677
-0.0163275514525677
-0.0163275514525677
-0.0163275514525677
-0.0163275514525677
-0.0122456635894258
-0.0122456635894258
-0.0124173394631512
-0.0143139267182718
-0.0122456635894258
-0.0138612981818371
-0.0163275514525677
-0.0163275514525677
-0.0163275514525677
-0.0163275514525677
-0.0189891546216644
-0.0199877751491844
-0.0185911644797282
-0.0204094393157096
-0.0204094393157096
-0.0204094393157096
-0.0163275514525677
-0.0163275514525677
-0.015257908851242
-0.0151572550513219
-0.0122456635894258
-0.0122456635894258
-0.00816377572628385
-0.00816377572628385
-0.00816377572628385
-0.00816377572628385
-0.0117233456229808
-0.0150079205584422
-0.00908408383472938
-0.00816377572628385
-0.00540018611347245
-0.0122456635894258
-0.00988006411861492
-0.00408188786314192
-0.00408188786314192
-0.000272329673645605
0
0
0
0
-0.00408188786314192
-0.00408188786314192
-0.00816377572628385
-0.00594617810455771
-0.00408188786314192
-0.00408188786314192
-0.00408188786314192
-0.00408188786314192
-0.00408188786314192
-0.00714014853041516
-0.00408188786314192
-0.00408188786314192
-0.00408188786314192
-0.00408188786314192
-0.00615148363578245
-0.00425223109307287
-0.00408188786314192
-0.00408188786314192
-0.00280827237438649
0
-0.00320626251638704
0
0
0
-7.96450628693386e-05
-0.00408188786314192
-0.0003183450790247
0
0
0.00295627422358767
0
0.00408188786314192
0.00151231550490129
0.00408188786314192
0.00191030564684013
0.00401353107692655
0.00230829578878684
0
0
0
0
0
0
0
0
0
-0.00386552922772492
0
-0.00346753908584038
-0.00285428777987255
0
0
0
0
0.00227356865995474
0.00408188786314192
0.00408188786314192
0.000364360484501714
0.00147758837611074
0.000762350626386252
0
0
0
0
0
0
0
0
-0.0035695255295555
-0.00275230133615744
0
0
0
0
0
0
0
0
0
0
0
0
0
-0.00262554339654385
0
0
0
0
0
0
0
0
0
0
0
0.00023760254481981
0.00200233645764194
0
0
0
0.00128357112161399
0.00408188786314192
0.00408188786314192
0.00408188786314192
0.00408188786314192
0.00408188786314192
0.00408188786314192
0.00408188786314192
0.00408188786314192
0.00816377572628385
0.00478826745130003
0.00702820645387104
0.00408188786314192
0.00890135485681257
0.0148251915805254
0.0166671404410954
0.0204094393157096
0.0244329260254943
0.034438650612349
0.0367369907682773
0.0340406604703874
0.0399644971941769
0.0449007664945612
0.0420712502106626
0.0396397240687306
0.0277920506211083
0.0241081528999664
0.0122604794525408
0.00816377572628385
0.0195986431688265
0.0244913271788515
0.0244913271788515
0.0244913271788515
0.0195698737414662
0.0163275514525677
0.0163275514525677
0.0163275514525677
0.0204094393157096
0.0185239051647813
0.0126000684410685
0.0163275514525677
0.0163275514525677
0.0111561097223826
0.00816377572628385
0.0115540998643639
0.00563026314055471
0
0.00213552244372813
0.00408188786314192
0.00408188786314192
0.00408188786314192
0.00408188786314192
0.00408188786314192
0.00502343988109998
0.00816377572628385
0.0087073376022409
0.0122456635894258
0.00816377572628385
0.00816377572628385
0.0119932451814977
0.0163275514525677
0.019759030765879
0.0175190917633256
0.0204094393157096
0.0196158891469528
0.013692052423165
0.0134323436700441
0.0222538182914087
0.0122505238196822
0
0.0110444028183862
0.0468276909931813
0.0817275931309093
0.129853671108566
0.200786849714844
0.316053166960168
0.501820572666069
0.713098229298555
0.868518122373773
0.985109087524505
0.954391570268118
0.681377074506161
0.348283940409007
0.130143325150754
-0.0157238638252837
-0.0735713429222416
-0.0795460552820464
-0.103241402176894
-0.106029528113104
-0.0981641862002334
-0.0749661506030898
-0.0591361456211813
-0.0286698709106434
0.00572762452636135
0.0323593343794184
0.0456483012579484
0.0541616216056195
0.0653102058102708
0.0653102058102708
0.069343648152914
0.0653102058102708
0.072581110211557
0.0789513825978074
0.0816377572628385
0.0857196451259804
0.0857196451259804
0.0822372901770416
0.0857196451259804
0.0895999902168212
0.0877631367588524
0.0936869734825653
0.102047196578548
0.0950722958754322
0.0951309322012512
0.101054768924963
0.105279563234588
0.102047196578548
0.101595665513447
0.100258788641078
0.10612908444169
0.10612908444169
0.109866523086048
0.110210972304832
0.116889869309735
0.117275238531214
0.117234318528447
0.118374748031116
0.12091821624966
0.122456635894258
0.122456635894258
0.126444062831415
0.1265385237574
0.1265385237574
0.131969909413243
0.131510852830412
0.131571919271358
0.140289212506459
0.142312557701152
0.138784187346825
0.14317712994383
0.153027327163753
0.151272313711321
0.154228823107252
0.162635061608704
0.172640786195577
0.172477733310916
0.16896441399205
0.178166632777364
0.180414097297707
0.190014306224831
0.191856255085402
0.19962956618752
0.211477239635073
0.213709653119797
0.222926922940496
0.23069270852484
0.236749496062232
0.242797895782967
0.255574500327901
0.2658377387253
0.275585949501726
0.281509786225438
0.289814038283077
0.296900881062651
0.312830442373448
0.321532684572972
0.332443901405158
0.341544133746681
0.34746797047051
0.353391807194221
0.363507043742521
0.373403256367931
0.379327093091751
0.385250929815472
0.387779346998483
0.391861234861625
0.394858664260411
0.395185632328522
0.389261795604809
0.387419846744238
0.381496010020464
0.371528775321194
0.351517326147484
0.33966965270006
0.3182527346953
0.300481224523934
0.281702235663752
0.260856316318517
0.242475317600268
0.218779970705021
0.199166511673312
0.177524612044195
0.163648497999358
0.148489910304007
0.131789375377992
0.121199168912412
0.112175916346285
0.101187719738588
0.0952638830148748
0.0852581584280209
0.0816377572628385
0.0774923728436212
0.0715685361199092
0.0693920936734127
0.0678846383987683
0.0619608016749603
0.0653102058102708
0.0623587918169405
0.0653102058102708
0.062756781958868
0.0612283179471289
0.0590728842376836
0.0571464300839869
0.0594708743796338
0.0571464300839869
0.0557869766584268
0.0562659445069761
0.052103078937169
0.0517860665019492
0.053064542220845
0.053064542220845
0.053064542220845
0.053064542220845
0.056913922941776
0.053064542220845
0.056515932799874
0.053064542220845
0.0561179426578909
0.0522510807863701
0.0516380646528235
0.0526490709282551
0.051240074510863
0.057128948933398
0.053064542220845
0.053064542220845
0.0571464300839869
0.0571464300839869
0.0612283179471289
0.0612283179471289
0.0612283179471289
0.0612283179471289
0.0612283179471289
0.0591188996430541
0.0531950629193413
0.0588578582460607
0.0576749409244833
0.0584598681041775
0.0612283179471289
0.0612283179471289
0.0612283179471289
0.0612283179471289
0.0612283179471289
0.0653102058102708
0.0653102058102708
0.0615068404947173
0.0653102058102708
0.0653102058102708
0.0653102058102708
0.0683175908419157
0.0645427597811664
0.0612283179471289
0.0615977738342323
0.0653102058102708
0.0612568522019096
0.0612283179471289
0.0612283179471289
0.0612283179471289
0.0644856912716041
0.0724565472146504
0.0636733273084643
0.0583853184438286
0.0653102058102708
0.0612283179471289
0.063291720845718
0.0614048540511117
0.0636447930535667
0.0577209563298529
0.0612283179471289
0.0612283179471289
0.0612283179471289
0.0612283179471289
0.0616997602779478
0.0653102058102708
0.0571464300839869
0.0609772321829967
0.0653102058102708
0.0612283179471289
0.0612283179471289
0.0582658508496058
0.0641896875733187
0.0597854566998913
0.0556279217051067
0.0609048774653951
0.0571464300839869
0.0611537682868616
0.0653102058102708
0.0617008577492811
0.0625977270055476
0.0620988478912812
0.0621997368635742
0.0653102058102708
0.0653102058102708
0.0653102058102708
0.0651347671776222
0.0612283179471289
0.0612283179471289
0.0612283179471289
0.0646896641590158
0.0653102058102708
0.0622468497403654
0.0620517350144623
0.0626448398822907
0.0567210031585385
0.053064542220845
0.053064542220845
0.053064542220845
0.053064542220845
0.053064542220845
0.053064542220845
0.053064542220845
0.053064542220845
0.053064542220845
0.053064542220845
0.0527871171445899
0.0468632804207689
0.0449007664945612
0.0449007664945612
0.0449007664945612
0.0462241601476094
0.0489826543577031
0.048057250846655
0.0449007664945612
0.0449007664945612
0.0449007664945612
0.0449007664945612
0.0468721385822942
0.0451693334092917
0.0449007664945612
0.0449007664945612
0.0437253746907141
0.0408188786314192
0.0441233648325973
0.0408188786314192
0.0408188786314192
0.0408188786314192
0.044882187872639
0.0408188786314192
0.0408188786314192
0.0408188786314192
0.0408188786314192
0.0408188786314192
0.0408188786314192
0.0401894788186387
0.0367369907682773
0.0326551029051354
0.0326551029051354
0.0326551029051354
0.0367369907682773
0.0332196735181437
0.0326551029051354
0.0326551029051354
0.0317757147994578
0.031294552008242
0.0321737049414588
0.0285732150419935
0.0285732150419935
0.0285732150419935
0.02480590949906
0.0244913271788515
0.0244913271788515
0.027443838643516
0.027462652437899
0.0326551029051354
0.0326551029051354
0.0285732150419935
0.0285732150419935
0.0285732150419935
0.0262686820120643
0.0285732150419935
0.0285732150419935
0.0285732150419935
0.0235099526295465
0.0232327627256728
0.0198260549083175
0.0187528847205308
0.0204094393157096
0.0204094393157096
0.0242787313023586
0.0244913271788515
0.0210200253341049
0.0244913271788515
0.0244913271788515
0.0244913271788515
0.0218160056180135
0.0163275514525677
0.0163275514525677
0.0204094393157096
0.0204094393157096
0.0204094393157096
0.0204094393157096
0.0204094393157096
0.0163275514525677
0.0163275514525677
0.0122456635894258
0.0122456635894258
0.0119582828803109
0.0124224348658712
0.0163275514525677
0.00816377572628385
0.0117370640146465
0.0109123143035181
0.0113390738727624
0.0163275514525677
0.0135502434480901
0.0122456635894258
0.0146249814520184
0.0121062847294042
0.00816377572628385
0.011987052307555
0.0106623260107183
0.0150143486048388
0.0163275514525677
0.0133002551552043
0.0122456635894258
0.0148749697448182
0.0163275514525677
0.0163275514525677
0.0163275514525677
0.0163275514525677
0.020002826184645
0.0148922157230215
0.0122456635894258
0.0163275514525677
0.019206845900759
0.0225732608419361
0.0122456635894258
0.0163275514525677
0.0142442372882606
0.0122456635894258
0.0163275514525677
0.00927300568658156
0.00816377572628385
0.00816377572628385
0.00408188786314192
0.006813180462249
0.00865512932281991
0.0099123611323188
0.00408188786314192
0.00601720017836391
0.00816377572628385
0.00408188786314192
0.00746115889702986
0.00408188786314192
0.00408188786314192
0.00482322975247781
0.00816377572628385
0.00408188786314192
0.00626718847116373
0.00816377572628385
0.0122456635894258
0.00861640426271895
0.0122456635894258
0.0122456635894258
0.0163275514525677
0.0191608304953894
0.0256780072593512
0.0326551029051354
0.0369323406665326
0.0408188786314192
0.0408188786314192
0.0424581872483558
0.0449007664945612
0.0354956722932258
0.023405300898268
0.0122456635894258
0.00687510920203021
0.00089067638233293
0.0104510627780203
0.0123403596877567
0.0222987362254988
0.0207600814084292
0.0163275514525677
0.0163275514525677
0.0111523469635443
0.0110990412128212
0.0197141128317442
0.0112530007634951
0.00846111206825668
0.0122456635894258
0.0122456635894258
0.00234059280249162
0
0.00273858294437661
0
-0.00313657308637671
0
0
-0.00238927349545113
-0.00816377572628385
-0.00816377572628385
-0.00816377572628385
-0.00408188786314192
-0.00408188786314192
-0.00408188786314192
-0.00408188786314192
0
0
0
0
0
0
0
0
0
0
-0.00288925008105079
-0.0122456635894258
-0.00975440365025998
0.0101743432190421
0.0512852276172432
0.0809044112358074
0.144495271412907
0.232116834368714
0.386986423955432
0.59781458768322
0.781713626829266
0.918844551994224
0.979294605980653
0.794232090438808
0.439966460882008
0.18285604941695
0.00416890166261679
-0.0761411504528338
-0.097272647519011
-0.10664434723533
-0.124357221080649
-0.117623450508921
-0.109106367402296
-0.0887416108481913
-0.0687748444361751
-0.0410422924398725
-0.0114231088210574
0.0109176448786989
0.017726827409563
0.0268918889508402
0.0326551029051354
0.0326551029051354
0.0367369907682773
0.0342917462345971
0.0367369907682773
0.0367369907682773
0.0406261940206434
0.0408188786314192
0.0408188786314192
0.0408188786314192
0.0470053245683795
0.053064542220845
0.0557597750473241
0.0571464300839869
0.0571464300839869
0.0612283179471289
0.0612283179471289
0.0612283179471289
0.0668114682109798
0.0693920936734127
0.0734739815365546
0.0764192026559505
0.0768505872828717
0.0760212125139495
0.0775558693996966
0.0797051102352073
0.0776465675667577
0.0793071200932063
0.0888241563709998
0.0938834208522643
0.0906882114400686
0.0907568033987461
0.0938834208522643
0.094440701120004
0.0979653087154062
0.0981245988411449
0.102047196578548
0.102047196578548
0.103650445422973
0.10612908444169
0.107334343144114
0.110210972304832
0.111018240865371
0.116942077589083
0.114292860167974
0.116544087447146
0.122456635894258
0.126163110168705
0.130620411620542
0.132075658615806
0.141296691195502
0.148005219926449
0.151029850936251
0.15577100551075
0.164196057806586
0.167879955527727
0.179727628975151
0.191575302422577
0.19355396485581
0.203024985728233
0.209483526166377
0.218556556896798
0.22541308747706
0.234088128065598
0.245424536650769
0.25605480082013
0.265549260544961
0.277396933992387
0.285447434998303
0.291371271722015
0.304093473045035
0.312541964192892
0.321388445482694
0.330632916914496
0.333236118930193
0.339159955653948
0.342878580503922
0.346925741238231
0.342878580503922
0.342878580503922
0.345551236777211
0.342878580503922
0.332692321881877
0.320844648434276
0.308996974986849
0.294694101372886
0.272625442174614
0.250987305303977
0.229316636247617
0.205621289352765
0.185427111201139
0.163573713166513
0.145802202995374
0.123948804961097
0.106177294789958
0.0884057846184716
0.0729414727647894
0.0611610586322463
0.0552372219085344
0.0418110711124547
0.0311438848715669
0.0218668812537165
0.0152143235609695
0.00929048683717227
0.00744853797660136
0.00152470125288852
0
0
-0.00400114532893842
-0.00816377572628385
-0.00816377572628385
-0.0122456635894258
-0.0122456635894258
-0.0132108896319072
-0.0163275514525677
-0.0116784276888266
-0.0105729604874521
-0.0163275514525677
-0.0143163568333996
-0.0122456635894258
-0.0122456635894258
-0.0122456635894258
-0.0122456635894258
-0.00918850039348582
-0.0114284393960277
-0.00816377572628385
-0.0126648976408237
-0.0140663685405364
-0.0163275514525677
-0.0181907442226507
-0.0167042976850557
-0.0163275514525677
-0.0163275514525677
-0.0204094393157096
-0.0175002779689417
-0.0129148859336417
-0.0163275514525677
-0.0163275514525677
-0.0163275514525677
-0.0123724215291149
-0.0122456635894258
-0.0122456635894258
-0.00948097650528157
-0.00908651394985896
-0.00816377572628385
-0.0109249352239666
-0.0122456635894258
-0.0122456635894258
-0.0162043210993401
-0.0122456635894258
-0.0160527916637952
-0.0147603623807711
-0.0122456635894258
-0.00816377572628385
-0.00515262793580038
-0.000771208787912455
-0.00408188786314192
-0.00408188786314192
-0.00408188786314192
-0.00408188786314192
-0.00816377572628385
-0.00816377572628385
-0.00408188786314192
-0.00408188786314192
-0.0010211970807404
-0.00408188786314192
-0.00408188786314192
-0.00654704366253832
-0.00816377572628385
-0.00816377572628385
-0.00816377572628385
-0.00408188786314192
-0.00408188786314192
-0.00408188786314192
-0.00408188786314192
-0.00408188786314192
-0.00408188786314192
-0.00408188786314192
-0.00408188786314192
-0.00824099067402588
-0.0103264997811128
-0.00816377572628385
-0.0107244899229987
-0.00816377572628385
-0.0111224800649988
-0.011128908111366
-0.0156023580700266
-0.00967852134631381
-0.0122456635894258
-0.0100765114881979
-0.0161859776498814
-0.0186382773564837
-0.0127144406327708
-0.0122456635894258
-0.0154607842673386
-0.0153523697772259
-0.0122456635894258
-0.0122456635894258
-0.0122456635894258
-0.0124248649808816
-0.0183487017045944
-0.0165463402030022
-0.0163275514525677
-0.0163275514525677
-0.0163275514525677
-0.0163275514525677
-0.0130728434156824
-0.0163275514525677
-0.015898361768313
-0.0122456635894258
-0.0163587509949383
-0.0204094393157096
-0.0166943420521972
-0.0137208218504091
-0.0196446585741961
-0.0174047195716251
-0.0204094393157096
-0.0163275514525677
-0.0163275514525677
-0.0163275514525677
-0.01845068814831
-0.0204094393157096
-0.0152339996541405
-0.00816377572628385
-0.0150003950407114
-0.0122456635894258
-0.0131748298593961
-0.0135564363220264
-0.00816377572628385
-0.00816377572628385
-0.00829696171237004
-0.0122456635894258
-0.016062747296652
-0.0122456635894258
-0.0122456635894258
-0.0151483968897966
-0.0152667670127678
-0.0155463870317985
-0.00962255030801111
-0.00854695000516896
-0.0122456635894258
-0.0122456635894258
-0.0140727965869318
-0.0199966333107106
-0.0148984085969959
-0.0122456635894258
-0.0122456635894258
-0.00937256201516892
-0.0122456635894258
-0.00977055215716902
-0.0167978963119526
-0.0244913271788515
-0.0205722570279098
-0.0220885704640804
-0.0244913271788515
-0.0232101861723649
-0.0204094393157096
-0.0244913271788515
-0.0244913271788515
-0.0244913271788515
-0.0244913271788515
-0.0204094393157096
-0.0223385587568793
-0.0244913271788515
-0.0260224564781371
-0.025200136882137
-0.0244913271788515
-0.0244913271788515
-0.0211445883311092
-0.0244913271788515
-0.0244913271788515
-0.0244913271788515
-0.020470270584196
-0.0186283217236251
-0.0163275514525677
-0.0163275514525677
-0.0163275514525677
-0.0153424141443674
-0.0122456635894258
-0.0122456635894258
-0.0122456635894258
-0.0122456635894258
-0.0122456635894258
-0.0122456635894258
-0.0122456635894258
-0.0122456635894258
-0.0122456635894258
-0.0122456635894258
-0.0122456635894258
-0.0149247479091119
-0.0126848089065408
-0.0186086456303167
-0.0122456635894258
-0.0122456635894258
-0.0122456635894258
-0.0148424375587255
-0.0122456635894258
-0.00816377572628385
-0.00816377572628385
-0.0129347971993594
-0.0163275514525677
-0.0166186949205976
-0.0204094393157096
-0.0164343981265397
-0.0180626536392826
-0.0204094393157096
-0.0122456635894258
-0.0154247244947115
-0.0204094393157096
-0.017628368552308
-0.0204094393157096
-0.0227925199371094
-0.0204094393157096
-0.0204094393157096
-0.0242364786557962
-0.025399014366966
-0.0169803901175275
-0.01922032912008
-0.0193586105087683
-0.0212005593693392
-0.0244913271788515
-0.0244913271788515
-0.0244913271788515
-0.0244913271788515
-0.0244913271788515
-0.0244913271788515
-0.0285732150419935
-0.0220111203439945
-0.0204094393157096
-0.023292496522825
-0.0279300968374491
-0.0244913271788515
-0.0244913271788515
-0.0244913271788515
-0.0244913271788515
-0.0228022403976222
-0.0204094393157096
-0.021700535955053
-0.0244913271788515
-0.0253844336761949
-0.0285732150419935
-0.0244913271788515
-0.0221542619628214
-0.0244913271788515
-0.0225522521048215
-0.0204094393157096
-0.0204094393157096
-0.0170264055229946
-0.0163275514525677
-0.0133425078017679
-0.0122456635894258
-0.0148327170982548
-0.0163275514525677
-0.0163275514525677
-0.0163275514525677
-0.0181186246775126
-0.0167764172301956
-0.0136387466724083
-0.0130925195089378
-0.0112505706483669
-0.0110008175279137
-0.0128427663885988
-0.0163275514525677
-0.0122456635894258
-0.0122456635894258
-0.0122456635894258
-0.0122456635894258
-0.00876064335299695
-0.00691869449242604
-0.00716891795765839
-0.0032347967711682
0
0.00408188786314192
0.00637293767375158
0.00821488653437339
0.0122456635894258
0.0159806721186553
0.0219045088424107
0.0211543087915061
0.0141333926830188
0.00816377572628385
-0.000699089242792417
-0.0066229259666014
-0.0163275514525677
-0.0120414555296489
-0.000193782082226897
0
0
0
0
0
0
0
0
-0.000153097251803299
-0.00807198008789035
-0.0122456635894258
-0.0147304954821954
-0.0122456635894258
-0.00936284155477207
-0.0122456635894258
-0.0204094393157096
-0.0204094393157096
-0.0159244659079655
-0.0122456635894258
-0.0163275514525677
-0.0163275514525677
-0.0200165445764277
-0.0148784973312788
-0.0122456635894258
-0.0122456635894258
-0.00645963790947784
-0.00473496170054488
-0.00816377572628385
-0.00841885942169395
-0.0101486310333378
-0.00422479430962497
-0.00816377572628385
-0.00462278445162507
-0.00538294013534571
-0.0113067768590567
-0.00317882573294005
-0.00549002198154557
-0.0209145113040274
-0.029185368876629
-0.0237417542546277
0.0157760721044627
0.0475281128798207
0.101230050776007
0.167254396864283
0.28420940893587
0.474102993314934
0.673488685692859
0.823044240666355
0.940262489079109
0.88919118998271
0.586206084598111
0.264954509470839
0.0585069809823559
-0.0562523045056747
-0.105189570584911
-0.112221069452667
-0.129762737769069
-0.134702299483684
-0.129804284898475
-0.109792835724769
-0.095894145126741
-0.0664437369214188
-0.0366356314509698
-0.0105114237016948
0.00125503686671636
0.00717887359051722
0.0154705047277354
0.0122456635894258
0.012704720172258
0.0163275514525677
0.0162664850116214
0.014148678890943
0.0200725156146558
0.0259963523384114
0.0252262410217894
0.0255983621964827
0.0315221989201956
0.0340731926564379
0.0408188786314192
0.0408188786314192
0.0429718822257354
0.0449007664945612
0.0449007664945612
0.0449007664945612
0.0489826543577031
0.0457836821867021
0.0458597996631072
0.0489826543577031
0.0489826543577031
0.0513856462448199
0.053064542220845
0.053064542220845
0.0569114928266469
0.0587534416872178
0.0612283179471289
0.0665192272716176
0.0663411233514968
0.0661212371296175
0.0693920936734127
0.0738870227140172
0.0775558693996966
0.077570920435159
0.0797807573667541
0.0775558693996966
0.083096767016986
0.0857196451259804
0.0857196451259804
0.0886226135988148
0.0904645624593838
0.0938834208522643
0.0982303480436751
0.106261172956445
0.106262035255313
0.107838082488636
0.117312866119867
0.118374748031116
0.124680661562382
0.131533429383604
0.137457266107315
0.139299214968002
0.147580028173462
0.151146888415427
0.159029711478887
0.167076449726101
0.173000286449822
0.178924123173535
0.18892984776039
0.194853684484188
0.204859409071073
0.213390210569331
0.220788970381639
0.231130756370632
0.244851343048698
0.252617128632981
0.260811868729172
0.264066811938484
0.275914485386061
0.278583378900427
0.287364168691487
0.29451294021101
0.302895739860283
0.310442501521676
0.310183419895006
0.310044511379676
0.315968348103503
0.31838725332507
0.317122260825495
0.311198424101694
0.304407585020263
0.292559911572837
0.280712238125415
0.266553603601532
0.244771227640906
0.229097612324729
0.209157185224824
0.185788806398003
0.16545038915592
0.146561888334292
0.122866541439441
0.10397208291616
0.08620057274474
0.0684290625736014
0.0506575524024575
0.0368909503190664
0.0232783077861163
0.00911371556084107
0.00271490891984962
-0.0032089278038614
-0.0122456635894258
-0.0122456635894258
-0.0209804379751159
-0.0244913271788515
-0.0285732150419935
-0.0305881724200848
-0.0365120091437976
-0.0351200235321861
-0.0326551029051354
-0.0338740799993407
-0.0397979167230536
-0.0408188786314192
-0.0381559428185674
-0.0371599875785985
-0.0408188786314192
-0.0408438852997385
-0.0449007664945612
-0.0449007664945612
-0.0449007664945612
-0.0415898522469842
-0.0408188786314192
-0.0408188786314192
-0.0408188786314192
-0.0383039446677283
-0.0367369907682773
-0.0367369907682773
-0.0367369907682773
-0.0367369907682773
-0.0331760882279014
-0.0285732150419935
-0.0285732150419935
-0.0294961884379125
-0.0298901806486455
-0.0244913271788515
-0.0244913271788515
-0.0244913271788515
-0.0244913271788515
-0.0283022180121347
-0.0270022632112737
-0.0279042278701423
-0.0256642888675713
-0.0285732150419935
-0.0244913271788515
-0.0244913271788515
-0.0207864207205433
-0.0244913271788515
-0.0244913271788515
-0.0222303794392284
-0.0244913271788515
-0.0204094393157096
-0.0204094393157096
-0.0193844794760751
-0.0163275514525677
-0.0157005817549172
-0.0122456635894258
-0.0160985718968191
-0.0122456635894258
-0.0122456635894258
-0.0105727253149904
-0.00816377572628385
-0.00408188786314192
-0.00719878485614812
-0.00320492987259072
-0.0027189068511203
-0.00360292001459264
0
0
0
0
0.00408188786314192
0.00408188786314192
0.00929072200963397
0.0122456635894258
0.00889273186765459
0.0122456635894258
0.012907595588354
0.0204094393157096
0.0163945755951037
0.0181024761707187
0.0204094393157096
0.0204094393157096
0.0204094393157096
0.0173064958868327
0.0232303326105455
0.0244913271788515
0.0244913271788515
0.0204094393157096
0.0224343523266595
0.0244913271788515
0.0244913271788515
0.027960198908469
0.0244913271788515
0.0306330903541211
0.0326551029051354
0.0299822114594247
0.0285732150419935
0.0262983137382447
0.0244563648776738
0.0222863504775117
0.0244913271788515
0.0244913271788515
0.0278121970592853
0.0264113532862066
0.0233323190542592
0.0278902743060149
0.021966437582302
0.0244913271788515
0.0223644277241879
0.0164405910004751
0.0163275514525677
0.0163275514525677
0.0204094393157096
0.0172365712843611
0.0122456635894258
0.0177954193681227
0.0204094393157096
0.0204094393157096
0.0204094393157096
0.0204094393157096
0.0204094393157096
0.0204094393157096
0.0204094393157096
0.0163275514525677
0.0193524176348029
0.0163275514525677
0.0137006754123026
0.0122456635894258
0.0100167776910974
0.00409294096733374
0.00591278361952103
0.00816377572628385
0.00529796449744439
0
0
-0.00287686433306402
0.000636925330511109
0.00408188786314192
0.00408188786314192
0.00408188786314192
0.00800472077289086
0.00408188786314192
0.00408188786314192
0
0
0
0
0
-0.00233087234197876
-0.00408188786314192
-0.00601477006323478
-0.00816377572628385
-0.00662888366814747
-0.00408188786314192
-0.00408188786314192
-0.00408188786314192
-0.0122456635894258
-0.00966480295453208
-0.0125865852217485
-0.0163275514525677
-0.0203523708060322
-0.0204094393157096
-0.016782610104131
-0.0217963295247172
-0.021262488109273
-0.0204094393157096
-0.0204094393157096
-0.0204094393157096
-0.0228422981014021
-0.0204094393157096
-0.0224443079595181
-0.0244913271788515
-0.0261282056806581
-0.0285732150419935
-0.0285732150419935
-0.0316540522624868
-0.0285732150419935
-0.0285732150419935
-0.0244913271788515
-0.0267761841154589
-0.0285282971079571
-0.0263781939735124
-0.0248443993867011
-0.0244913271788515
-0.0278221526921438
-0.0285732150419935
-0.0285732150419935
-0.0285732150419935
-0.0285732150419935
-0.0326551029051354
-0.0326551029051354
-0.0326551029051354
-0.0367369907682773
-0.0403178045743721
-0.0394780038277812
-0.0367369907682773
-0.0408188786314192
-0.0408188786314192
-0.0402739841116654
-0.0367369907682773
-0.0449007664945612
-0.0429119132562384
-0.0369880765324166
-0.0367369907682773
-0.0367369907682773
-0.0379298637227141
-0.0408188786314192
-0.0408188786314192
-0.0408188786314192
-0.0445038738240085
-0.0385800371002339
-0.040817781160086
-0.0426597300206569
-0.0449007664945612
-0.0449007664945612
-0.0449007664945612
-0.0459456375999128
-0.0489826543577031
-0.0489826543577031
-0.0489826543577031
-0.0494804360006344
-0.0571464300839869
-0.0532136415413794
-0.0489826543577031
-0.0525174527584265
-0.0571464300839869
-0.0540096218252655
-0.0498795236139696
-0.0558033603376824
-0.0571464300839869
-0.0548056021091496
-0.0491844323024641
-0.0590892679169384
-0.0574435312536065
-0.053064542220845
-0.053064542220845
-0.0501295119067685
-0.053064542220845
-0.0523156748137584
-0.0515734706254553
-0.0489826543577031
-0.0511754804834534
-0.053064542220845
-0.053064542220845
-0.0567013270652822
-0.0571464300839869
-0.0571464300839869
-0.0571464300839869
-0.0571464300839869
-0.0571464300839869
-0.0620320589210891
-0.0612283179471289
-0.0632731422237977
-0.0653102058102708
-0.0653102058102708
-0.0653102058102708
-0.0653102058102708
-0.0622194129569171
-0.0571464300839869
-0.0598392327954153
-0.0566935663750901
-0.053064542220845
-0.0489826543577031
-0.0489826543577031
-0.0415051117813976
-0.0367369907682773
-0.0333962096221247
-0.0296740571856064
-0.0326551029051354
-0.0278703630402977
-0.0270361280411182
-0.033264826624544
-0.0429656893518018
-0.0488895260755146
-0.0606440712407482
-0.0689009752492223
-0.0585266570741357
-0.053064542220845
-0.0489826543577031
-0.0489826543577031
-0.053064542220845
-0.053064542220845
-0.0532214022314555
-0.0551476212128056
-0.0492237844889836
-0.0546653609501405
-0.0571464300839869
-0.0571464300839869
-0.0571464300839869
-0.0620331563925402
-0.0653102058102708
-0.0657170541136802
-0.0716408908374569
-0.0734651233750293
-0.0693920936734127
-0.0656993377907474
-0.0708449105535483
-0.0734739815365546
-0.0734739815365546
-0.0734739815365546
-0.0687352570771839
-0.0653102058102708
-0.0693920936734127
-0.0672912983585176
-0.0653102058102708
-0.0670130109832818
-0.0693920936734127
-0.0693920936734127
-0.0693920936734127
-0.0693920936734127
-0.0693920936734127
-0.0693920936734127
-0.0646905264580246
-0.0612283179471289
-0.0651339048787524
-0.0807763206525608
-0.0841648418021687
-0.0646539963404428
-0.0227891491323646
0.00982879652869633
0.0703341944262371
0.154424094614531
0.298361301851391
0.510101150698498
0.69692526452242
0.833868757263934
0.914508442734334
0.759412930834136
0.407611908347665
0.134066628405078
-0.0357631417367414
-0.126732384230141
-0.151029850936251
-0.155963062995219
-0.171439290251961
-0.167542561481864
-0.16812571071691
-0.15277929864109
-0.132490189218619
-0.0997702571138531
-0.0708915530856363
-0.0531200429142674
-0.0403560592896639
-0.0321274543636248
-0.0285732150419935
-0.0285732150419935
-0.0248244881209822
-0.0244913271788515
-0.0211405903998404
-0.0204094393157096
-0.0174566926785843
-0.0122456635894258
-0.00969090709430059
-0.00784895823372072
-0.00408188786314192
-8.31726493317189e-05
0
0
0
0
0.00408188786314192
0.00408188786314192
0.00408188786314192
0.00408188786314192
0.00833059136975286
0.0122456635894258
0.0122456635894258
0.0138564379515798
0.0163275514525677
0.0204094393157096
0.0204094393157096
0.0204094393157096
0.0204094393157096
0.0204094393157096
0.0226681921126127
0.0244913271788515
0.0263520898338045
0.0285732150419935
0.0326551029051354
0.0326551029051354
0.033719885276206
0.0367369907682773
0.0414856708605069
0.0449007664945612
0.0449007664945612
0.0470115174423167
0.0489826543577031
0.0506954151635745
0.053064542220845
0.0543793128847145
0.0634598691328678
0.0703088741953981
0.0734739815365546
0.0745115622965216
0.0839984965033929
0.0898015329891223
0.0917642820877927
0.0976881188115055
0.103611955535217
0.109535792259026
0.116626397797543
0.128474071244968
0.13215796896611
0.141394914880253
0.15140063946715
0.159537213582332
0.167330200777717
0.176883532000523
0.190998346061699
0.194682243782837
0.206529917230263
0.213276935849079
0.219200772572792
0.225745386120204
0.237593059567626
0.245358845152142
0.255141783057183
0.264972304183851
0.269404598967367
0.27291329322842
0.274755242089007
0.28067907881272
0.285732150419935
0.283019436442789
0.281650262556793
0.27933553872161
0.273411701997897
0.263654397887655
0.249641570270202
0.232193265408335
0.214421755237202
0.191447603793497
0.167752256898309
0.148861561134013
0.12852533883489
0.108911879803151
0.0852165329078729
0.0615211860130215
0.0436764588254098
0.0222942679496027
0.00542229232186015
-0.00642538112556553
-0.0173003030127813
-0.0260388401572786
-0.0373117521866068
-0.04565229918922
-0.0489826543577031
-0.0510013744946016
-0.0569252112184241
-0.0587671600790013
-0.0646909968027142
-0.0612283179471289
-0.0612283179471289
-0.0620530676582573
-0.0679769043819701
-0.0653102058102708
-0.0675789142400345
-0.0775558693996966
-0.0756851511118832
-0.0771866486849389
-0.0775558693996966
-0.0775558693996966
-0.0786306074036257
-0.087471130991835
-0.0802842615389456
-0.0759926782591688
-0.0775558693996966
-0.0775558693996966
-0.0775558693996966
-0.0751966979752828
-0.0775558693996966
-0.0816377572628385
-0.0816377572628385
-0.0807110211079963
-0.0775558693996966
-0.0780846154125386
-0.0816377572628385
-0.0816377572628385
-0.0796650525313096
-0.0775558693996966
-0.0816377572628385
-0.0850544207130335
-0.0804610328151956
-0.0805745427079104
-0.0808590229571975
-0.0775558693996966
-0.0775558693996966
-0.0775558693996966
-0.0775558693996966
-0.0757311665173188
-0.0734739815365546
-0.0775558693996966
-0.0808245310007093
-0.0816377572628385
-0.0816377572628385
-0.0816377572628385
-0.0816377572628385
-0.0814050149481668
-0.0775558693996966
-0.0775558693996966
-0.0792325704329373
-0.0816377572628385
-0.0775558693996966
-0.0806765291516241
-0.0816377572628385
-0.0816377572628385
-0.0816377572628385
-0.0816377572628385
-0.0857196451259804
-0.0857196451259804
-0.0857196451259804
-0.0857196451259804
-0.0857196451259804
-0.0816377572628385
-0.0816377572628385
-0.0823704761631117
-0.0857196451259804
-0.0816377572628385
-0.0816377572628385
-0.0816377572628385
-0.0775558693996966
-0.0811765057372256
-0.0775558693996966
-0.0807785155953397
-0.0806550500697664
-0.0803805254533396
-0.0822224743140265
-0.0832929792142233
-0.0816377572628385
-0.0816377572628385
-0.0816377572628385
-0.0816377572628385
-0.0851103917512823
-0.0898015329891223
-0.0898015329891223
-0.0889668276451354
-0.0830429909214226
-0.0820744724648253
-0.0857196451259804
-0.0857196451259804
-0.0857196451259804
-0.0857196451259804
-0.0857196451259804
-0.0857196451259804
-0.0857196451259804
-0.0857196451259804
-0.0857196451259804
-0.0882482974814531
-0.0860083584788821
-0.0898015329891223
-0.0898015329891223
-0.0938834208522643
-0.0938834208522643
-0.0979653087154062
-0.0947886779252505
-0.0938834208522643
-0.0966620615005359
-0.0979653087154062
-0.0979653087154062
-0.0938834208522643
-0.0938834208522643
-0.0938834208522643
-0.0938834208522643
-0.0973100399353181
-0.0979653087154062
-0.0979653087154062
-0.0938834208522643
-0.0938834208522643
-0.0938834208522643
-0.0916507721950779
-0.0938761305068814
-0.0938834208522643
-0.0938834208522643
-0.0938834208522643
-0.0938834208522643
-0.0938834208522643
-0.0938834208522643
-0.0938834208522643
-0.0914007839022772
-0.0859623430734034
-0.0898015329891223
-0.0858749373204502
-0.0840329884598793
-0.0781091517360662
-0.0775558693996966
-0.0775558693996966
-0.0784465457819135
-0.0789051320199748
-0.0734739815365546
-0.0734739815365546
-0.0733792854382237
-0.0674554487144558
-0.0653102058102708
-0.0571464300839869
-0.0605270337615738
-0.0653102058102708
-0.062327592274568
-0.0653102058102708
-0.0627255824165699
-0.0615730023382685
-0.0653102058102708
-0.0612816236978831
-0.0653102058102708
-0.0580490218694993
-0.0626189709150596
-0.0653102058102708
-0.0612283179471289
-0.0583937062606273
-0.0612283179471289
-0.0636649394917446
-0.0655068883523155
-0.0693920936734127
-0.0655115134101159
-0.0612283179471289
-0.0612283179471289
-0.0612283179471289
-0.0581437179677407
-0.053064542220845
-0.053064542220845
-0.0498759960273903
-0.0594350497794665
-0.053064542220845
-0.0511739126673146
-0.0489826543577031
-0.0474900149461322
-0.0482353547667766
-0.0489826543577031
-0.0489826543577031
-0.0449007664945612
-0.0474393744828906
-0.0486839853719447
-0.0449007664945612
-0.0488833332014614
-0.0548071699252903
-0.0571464300839869
-0.053064542220845
-0.053064542220845
-0.0561997826634259
-0.050275945939713
-0.0489826543577031
-0.0465920482185712
-0.0489826543577031
-0.0489826543577031
-0.0489826543577031
-0.0449007664945612
-0.0449007664945612
-0.0449007664945612
-0.0449007664945612
-0.0441021209232013
-0.0408188786314192
-0.0408188786314192
-0.0430614829214642
-0.0408162133439453
-0.0385816049163746
-0.0371323156226875
-0.0367369907682773
-0.0367369907682773
-0.0356883569040887
-0.0326551029051354
-0.0373876344905521
-0.0383262860485736
-0.0408188786314192
-0.0408188786314192
-0.0408188786314192
-0.0391222663324596
-0.0367369907682773
-0.0408188786314192
-0.0408188786314192
-0.0408188786314192
-0.0408188786314192
-0.0413215205046088
-0.0449007664945612
-0.0408188786314192
-0.044712079815047
-0.0489826543577031
-0.0433521560446867
-0.0374283193209738
-0.0367369907682773
-0.0367369907682773
-0.0408188786314192
-0.0408188786314192
-0.0411735186554177
-0.0470973553792365
-0.0449441166124587
-0.0466993652372346
-0.0489826543577031
-0.0449007664945612
-0.0449007664945612
-0.0449007664945612
-0.0420561991752028
-0.0408188786314192
-0.0408188786314192
-0.0408188786314192
-0.0387702915959451
-0.0328464548721235
-0.0228407302852633
-0.0239019850698688
-0.0244913271788515
-0.0213967715666027
-0.0163275514525677
-0.0190241169228427
-0.0294864679774014
-0.0413341414249577
-0.0531231785466649
-0.0552458448975962
-0.0493220081738851
-0.0393162835869877
-0.0333924468632015
-0.0337597078076402
-0.0367369907682773
-0.0367369907682773
-0.0392855543894671
-0.0408188786314192
-0.0408188786314192
-0.0488039233109405
-0.0553938467466813
-0.0566590744187198
-0.0625829111424326
-0.0685067478661454
-0.0684354906199931
-0.0681087577242614
-0.0745912073593901
-0.0816377572628385
-0.0814771344933049
-0.075553297769592
-0.0734739815365546
-0.0734739815365546
-0.0734739815365546
-0.0775558693996966
-0.0775558693996966
-0.0775558693996966
-0.0775558693996966
-0.077145258337364
-0.0734739815365546
-0.0734739815365546
-0.0734739815365546
-0.0734739815365546
-0.0775558693996966
-0.0742573409001082
-0.0734739815365546
-0.0734739815365546
-0.0728133821814213
-0.0693920936734127
-0.0699173120996904
-0.0817649855473332
-0.0936126589947588
-0.0870571491249914
-0.0527162518529727
-0.01794843822919
0.0179717986903806
0.0830509083923959
0.188423678299107
0.35776280036456
0.567526573675399
0.733293896875468
0.855846247949433
0.874657533823723
0.616140712837655
0.266742603846976
0.0398172792543952
-0.104951262522922
-0.165563271922218
-0.175521178115103
-0.188860628675106
-0.200012505293954
-0.19596401191585
-0.184614512065535
-0.164569668406789
-0.148058917631145
-0.11518722091836
-0.0898331244856731
-0.0689923005430405
-0.0606137339973652
-0.0546898972736523
-0.0489826543577031
-0.0489826543577031
-0.0489826543577031
-0.0432402139681126
-0.0443213800184388
-0.0436382041101127
-0.0408188786314192
-0.0399543063888566
-0.0340304696651438
-0.0285732150419935
-0.0262646840807944
-0.0285732150419935
-0.0266626742227459
-0.0207388374990331
-0.0204094393157096
-0.0204094393157096
-0.0163275514525677
-0.0163275514525677
-0.0163275514525677
-0.0163275514525677
-0.0122456635894258
-0.0122456635894258
-0.0162481415620431
-0.0104831246192634
-0.00816377572628385
-0.00408188786314192
-0.00408188786314192
-0.00311532917686374
0
0
0
0
0
0
0.00408188786314192
0.00753837384477227
0.00938032270536096
0.0122456635894258
0.013064220426501
0.0189880571502894
0.0208300060109007
0.0244913271788515
0.0245139037320426
0.0304377404558084
0.0363615771795824
0.0422854139032953
0.0449007664945612
0.0459693116244675
0.0548036423388288
0.0612283179471289
0.0612283179471289
0.0655827706562685
0.0715066073800914
0.0774304441038042
0.0867873279568742
0.0974418932775119
0.103365730001341
0.112450049008417
0.116133946729559
0.127981620176985
0.139829293624642
0.151676967072064
0.155360864793206
0.169175050098109
0.183138099551416
0.189335363420122
0.195259200143833
0.206435456304346
0.215270649317658
0.226048915336221
0.235282098491368
0.237124047351948
0.243047884075766
0.244913271788515
0.248995159651657
0.256316077389584
0.262661343107591
0.265322711104225
0.269404598967367
0.26654012038229
0.257158935377941
0.254692446934748
0.244686722347895
0.236694387322991
0.224846713875343
0.205576136246151
0.185393246371178
0.162267330319598
0.138571983424392
0.118083996517152
0.0911812896345798
0.0679624804731495
0.0478724837077627
0.0324194601305299
0.0127274535072853
0.000319442550464924
-0.0152906762097243
-0.0237738944865025
-0.0389860231047175
-0.0508336965521432
-0.0537910682470857
-0.0622833798578008
-0.0697206295577486
-0.0756444662814597
-0.0775558693996966
-0.0816377572628385
-0.0852522007264303
-0.0870941495870012
-0.0930179863107123
-0.0938834208522643
-0.0938834208522643
-0.0979653087154062
-0.0979653087154062
-0.102227730613797
-0.10410660154587
-0.102047196578548
-0.102047196578548
-0.102047196578548
-0.10612908444169
-0.10612908444169
-0.10612908444169
-0.10612908444169
-0.10612908444169
-0.108401555630312
-0.106096552255639
-0.102047196578548
-0.105763626485856
-0.108734481400096
-0.10612908444169
-0.107207585204457
-0.110210972304832
-0.113612349547123
-0.112733431786253
-0.117809707073399
-0.110210972304832
-0.110210972304832
-0.110210972304832
-0.106642544246726
-0.110210972304832
-0.10704053438861
-0.110210972304832
-0.107438524530612
-0.109678463533067
-0.10612908444169
-0.10612908444169
-0.104152616951354
-0.102047196578548
-0.102047196578548
-0.102047196578548
-0.102047196578548
-0.102047196578548
-0.101264699513982
-0.0979653087154062
-0.0983498156379812
-0.104273652361797
-0.102060679797868
-0.10612908444169
-0.10612908444169
-0.102047196578548
-0.102047196578548
-0.102047196578548
-0.102047196578548
-0.102047196578548
-0.102047196578548
-0.106365589515171
-0.108132518370782
-0.10612908444169
-0.107809548233856
-0.113733384957567
-0.110210972304832
-0.110210972304832
-0.107898051458246
-0.114292860167974
-0.110210972304832
-0.110210972304832
-0.110210972304832
-0.112141424389795
-0.114292860167974
-0.114292860167974
-0.114292860167974
-0.114292860167974
-0.114292860167974
-0.118374748031116
-0.115796317511349
-0.114292860167974
-0.114292860167974
-0.11831524940631
-0.114292860167974
-0.114292860167974
-0.118374748031116
-0.115148339076664
-0.114292860167974
-0.114292860167974
-0.118374748031116
-0.115944319360552
-0.114483349836085
-0.116342309502436
-0.114292860167974
-0.115927308554654
-0.118374748031116
-0.119611206275912
-0.119378228788893
-0.118374748031116
-0.118374748031116
-0.122456635894258
-0.122456635894258
-0.122456635894258
-0.120572199214723
-0.118374748031116
-0.118374748031116
-0.118374748031116
-0.125450067361776
-0.119526230637976
-0.122456635894258
-0.11992422077998
-0.118374748031116
-0.12050917300351
-0.126433009727224
-0.122456635894258
-0.122456635894258
-0.1265385237574
-0.123358130208321
-0.123397090440767
-0.1265385237574
-0.122456635894258
-0.122456635894258
-0.118374748031116
-0.118374748031116
-0.118374748031116
-0.118374748031116
-0.121805129872995
-0.121266193054917
-0.118374748031116
-0.118374748031116
-0.11574034647312
-0.114292860167974
-0.114292860167974
-0.110214499891293
-0.113887814853047
-0.118374748031116
-0.116934316898892
-0.114292860167974
-0.11325041917775
-0.113095362155625
-0.114937311016216
-0.120861147740028
-0.118374748031116
-0.118374748031116
-0.122305106458709
-0.122456635894258
-0.122456635894258
-0.121164206611234
-0.121509126174798
-0.122456635894258
-0.125193023895967
-0.1265385237574
-0.1265385237574
-0.122456635894258
-0.122456635894258
-0.122456635894258
-0.123999053470126
-0.1265385237574
-0.122456635894258
-0.122456635894258
-0.122456635894258
-0.125045022046884
-0.1265385237574
-0.1265385237574
-0.122506178886205
-0.122456635894258
-0.126090990623569
-0.130620411620542
-0.127384047033231
-0.123453061479112
-0.123700149311977
-0.11897318347397
-0.124897020197681
-0.1265385237574
-0.1265385237574
-0.1265385237574
-0.122456635894258
-0.118970283014051
-0.118374748031116
-0.118374748031116
-0.118374748031116
-0.118374748031116
-0.117924314437349
-0.116585242622313
-0.118322304579349
-0.114292860167974
-0.114292860167974
-0.116878345860664
-0.114292860167974
-0.117276336002633
-0.114292860167974
-0.122456635894258
-0.122456635894258
-0.118374748031116
-0.120519128636368
-0.122456635894258
-0.118374748031116
-0.118374748031116
-0.121108235572889
-0.118374748031116
-0.117424337851748
-0.114292860167974
-0.113740440130493
-0.112605341202885
-0.114292860167974
-0.112296481411921
-0.106372644688097
-0.107727473055859
-0.110210972304832
-0.110210972304832
-0.107168624972007
-0.110210972304832
-0.107566615113978
-0.110210972304832
-0.107964605255862
-0.106122656395293
-0.103895573485518
-0.10612908444169
-0.104678697676683
-0.102047196578548
-0.102047196578548
-0.0991528510948934
-0.102047196578548
-0.0995508412367811
-0.098221725054604
-0.102047196578548
-0.102047196578548
-0.10612908444169
-0.10612908444169
-0.104826699525807
-0.102047196578548
-0.107033479215689
-0.110210972304832
-0.109704567672833
-0.108477437934324
-0.110210972304832
-0.110210972304832
-0.106418660093579
-0.10612908444169
-0.109523406511059
-0.107283467508486
-0.110210972304832
-0.10612908444169
-0.103530742656206
-0.0976069059324946
-0.0916830692087836
-0.0857592324850689
-0.0757535078981
-0.0734739815365546
-0.0720696101769581
-0.0693920936734127
-0.0693920936734127
-0.0693920936734127
-0.0706088758248373
-0.0849068892085408
-0.0943042227199134
-0.104099546372945
-0.102234785786724
-0.096310949063009
-0.0938834208522643
-0.0979653087154062
-0.101063627086488
-0.102047196578548
-0.102047196578548
-0.101586807351923
-0.0956629706282118
-0.0980277078000314
-0.102047196578548
-0.105793493384431
-0.107635442245004
-0.110210972304832
-0.110210972304832
-0.113161288826831
-0.114292860167974
-0.119397512927971
-0.122144248516823
-0.118374748031116
-0.114378462932432
-0.110210972304832
-0.110210972304832
-0.112934504213747
-0.110210972304832
-0.109250606492605
-0.103326769768894
-0.102047196578548
-0.10445152110946
-0.105964698913347
-0.102047196578548
-0.102047196578548
-0.102047196578548
-0.102047196578548
-0.0991756628204337
-0.102047196578548
-0.0979653087154062
-0.0979653087154062
-0.0979653087154062
-0.0979653087154062
-0.102079963937059
-0.113927637384481
-0.114674466630718
-0.0810394786014784
-0.0421941670006772
-0.00374684554190137
0.0552610527138689
0.154728878081849
0.321964069199501
0.534821065479056
0.705810078918345
0.842055187934086
0.864857820285478
0.643375091237834
0.293589104519425
0.0478658988828401
-0.0994349012288384
-0.166242057945093
-0.180119426243098
-0.19311819034336
-0.203976023034127
-0.198052186310412
-0.18832608174259
-0.170834191590354
-0.149658403716768
-0.116634942395986
-0.0870157587774129
-0.0686257451157367
-0.0627019083919315
-0.0526961838050749
-0.0511929616340423
-0.0490122860839331
-0.0449007664945612
-0.0449007664945612
-0.0408188786314192
-0.0408188786314192
-0.0398025417808483
-0.039595276479421
-0.0402005319228484
-0.0367369907682773
-0.0324347463384486
-0.0285732150419935
-0.0324774693298221
-0.0269088997567377
-0.0244913271788515
-0.0191431141723379
-0.0163275514525677
-0.0163275514525677
-0.01361726759055
-0.0127160084489133
-0.0140152577325111
-0.0123180183069096
-0.0144132478744568
-0.0122456635894258
-0.0107293501532533
-0.00480551342954233
-0.00408188786314192
-0.00408188786314192
-0.00336155471085731
0
0.000322343010293678
0.00408188786314192
0.00408188786314192
0.00816377572628385
0.00816377572628385
0.00816377572628385
0.0113740361739384
0.0163275514525677
0.0163275514525677
0.0204094393157096
0.02282371947948
0.0246656683400491
0.0305895050637637
0.0365133417875844
0.0326551029051354
0.039575600386046
0.0461210762324436
0.0489826543577031
0.0498049739537015
0.0557288106774161
0.0616526474011271
0.0675764841249062
0.0735003208486688
0.0794241575723799
0.0853479942960945
0.0912718310198473
0.0971956677436362
0.108273700219288
0.117207116917342
0.127212841504315
0.13565294483551
0.151306178541166
0.157230015264877
0.171074302640694
0.178961750762303
0.190809424209725
0.202657097657154
0.211340526062497
0.221346250649376
0.230036342273376
0.241357699823089
0.244913271788515
0.253333699026462
0.263211097857484
0.269134934581195
0.275058771304954
0.280982608028737
0.281650262556793
0.281650262556793
0.277568374693651
0.274950121642449
0.269026284918738
0.260882185285822
0.2490345118384
0.23128267776028
0.213511167589147
0.1943153747927
0.170620027897841
0.146924681002533
0.123229334107675
0.0995339872128305
0.0783088915199849
0.0562251812858056
0.0325298343909615
0.0127486974167901
-0.00334854183622866
-0.0151962152838506
-0.027043888731312
-0.0357733325419347
-0.0457790571287913
-0.0517028938525797
-0.0576267305763294
-0.063550567300044
-0.0654748265109555
-0.0753982407475244
-0.0775558693996966
-0.0775558693996966
-0.0775558693996966
-0.0816377572628385
-0.0816377572628385
-0.0823680460479817
-0.0882918827716927
-0.0898015329891223
-0.0898015329891223
-0.0857853366247214
-0.0898015329891223
-0.0898015329891223
-0.0898015329891223
-0.0930217490696355
-0.0898015329891223
-0.0898015329891223
-0.0898015329891223
-0.0922257687857513
-0.0898015329891223
-0.0918277786437512
-0.0938834208522643
-0.0938834208522643
-0.0938834208522643
-0.0979653087154062
-0.0979653087154062
-0.102047196578548
-0.0993729724891185
-0.0979653087154062
-0.0979653087154062
-0.0979653087154062
-0.0979653087154062
-0.0979653087154062
-0.0979653087154062
-0.0979653087154062
-0.0968830451937485
-0.0938834208522643
-0.0931991474725873
-0.087275310748776
-0.0898015329891223
-0.0919297650874649
-0.0938834208522643
-0.0898015329891223
-0.0862293421720911
-0.0898015329891223
-0.0898015329891223
