0.00398442801746194
0.00218646883118611
0
0
0
-0.00296348812100623
0
0
0
0
0
0
0
0
-0.00126486050309228
-0.010110067396197
-0.00398442801746194
-0.00131011797300348
0
-0.00228580039954798
-0.00786952446656125
-0.00208713726282439
0
0
0
-0.00112027146481839
-0.00398442801746194
-0.00398442801746194
-0.00145470701127737
0
0
0.0157566821902029
0.0239065681047716
0.0239065681047716
0.029255188193688
0.0318754241396955
0.0318754241396955
0.0291017825268756
0.0233193953231376
0.0199221400873097
0.0199221400873097
0.0199221400873097
0.0237167215965866
0.0167059147311302
0.0153593559167522
0.0187025370541291
0.0129201498503918
0.00796885603492388
0.0105979086094699
0.00841143977828406
0.0119532840523858
0.0079147819364742
0.00398442801746194
0.0112844129594679
0.00650533239510802
0.00398442801746194
0
0
-0.000686504349996762
-0.00398442801746194
-0.00398442801746194
-0.001888474126099
0
-0.00170744424645245
-0.00398442801746194
0
-0.00623378757563725
0
-0.00272838414290819
-0.00344251270573908
0.00233987449799843
0.00383102235064952
0
0
0.00242157280928334
0.00336081439445515
0.00914320159819194
0.0149255888019305
0.0031985920991029
0.00258379510463428
0
-0.00439057091945113
-0.0159288954413092
-0.00291940497831018
0.0368067360436454
0.0736787114687239
0.120587872607256
0.189866022200783
0.310915286135678
0.49118670636637
0.702064570913957
0.858480552145883
0.970968493617352
0.949923137072766
0.64833912837821
0.322110340133751
0.107939845565539
-0.0283112492996532
-0.0872136583135877
-0.0996107004365485
-0.113053958014369
-0.12351726854132
-0.115115819718792
-0.0977045930533707
-0.0919222058496337
-0.0531276641115194
-0.0192820675344375
0.00451635237342753
0.0159377120698478
0.0253877250016673
0.0318754241396955
0.0362119209606953
0.0419943081644329
0.0438287081920814
0.0517975642270052
0.0482380866958262
0.0517975642270052
0.0486265963407351
0.0487976352646263
0.0545800224683649
0.0597664202619291
0.0621603688583784
0.0635433685141271
0.0597664202619291
0.0559630221241138
0.062249709470987
0.0683048158214098
0.0689636959585726
0.0717197043143149
0.072559614331124
0.0783420015348626
0.0761555327036771
0.0819379199074141
0.0795627788952589
0.0735805542275807
0.0830217505308597
0.0822006480983446
0.0796885603492388
0.0836729883667008
0.0836729883667008
0.084368309345236
0.0901506965489745
0.0956262724190866
0.097731042938988
0.103513430142727
0.107579556471472
0.107579556471472
0.10359512845401
0.109846549286726
0.114609170921225
0.114301185260383
0.119532840523858
0.121881531650396
0.127501696558782
0.12946187804041
0.135244265244148
0.135470552593706
0.142209814639693
0.151408264663554
0.14842714328547
0.159377120698478
0.159377120698478
0.167752119635391
0.171330404750863
0.179352160557024
0.193068137281527
0.202464076114896
0.204632911689004
0.213640340877461
0.228150970148865
0.239606422032222
0.251018965100102
0.255915010489904
0.271464212914842
0.280969474272326
0.290609333712331
0.298189680102343
0.30975445450982
0.324021163174588
0.323642644485433
0.32761708154714
0.333399468750877
0.343166283972077
0.351252104832442
0.358715486397016
0.364497873600753
0.362854494408506
0.366567377606499
0.366567377606499
0.36144504486714
0.355662657663402
0.349130875382678
0.337566100975203
0.317310699668651
0.296339995472049
0.282949637665463
0.25987533727618
0.233177494301507
0.211013636957345
0.187306906316516
0.165359345366155
0.148212021218883
0.125687278442644
0.108340116831428
0.0912092516140201
0.0776302216264641
0.0679074895479592
0.0565149283915919
0.04837385910556
0.0373698075941007
0.0318754241396955
0.0222091148140728
0.0159377120698478
0.0194619230868708
0.0159377120698478
0.0118815766968574
0.00609918949311884
0.0076520537455436
0.0104721271554913
0.00796885603492388
0.00289178076547637
0
0
0.00250209679335107
-0.000315627962165077
-0.00398442801746194
-7.2881682745381e-05
-0.0017250775035312
-0.00398442801746194
0
0
0
0
-0.00398442801746194
-0.00398442801746194
-0.00398442801746194
-0.00398442801746194
-0.00775138531390639
-0.00796885603492388
-0.00796885603492388
-0.00796885603492388
-0.00796885603492388
-0.00716538685948552
-0.00658585637917575
-0.00796885603492388
-0.00796885603492388
-0.00799530592054104
-0.0137776931242796
-0.0123153438116774
-0.00542032744444522
-0.00796885603492388
-0.00398442801746194
-0.00682977698581156
-0.00332554788029765
-0.00245683932343981
-0.00425479850971574
-0.00590052635639439
-0.00398442801746194
-0.00167982003361992
-0.00746220723735847
-0.00796885603492388
-0.00796885603492388
-0.00398442801746194
-0.00128366808738617
-0.00449871911635238
-0.0102811063200899
-0.00784307458094394
-0.00398442801746194
-0.00398442801746194
-0.00551965901280801
-0.00796885603492388
-0.00398442801746194
-0.00398442801746194
-0.00796885603492388
-0.00541268514312196
-0.000369702060616588
-0.00615208926435418
-0.00400323560175584
-0.00576357961944386
-0.00439174524666633
-0.00657821407785166
-0.00717302916081077
-0.014935579757686
-0.00915319255394726
-0.00858247870217684
-0.00954170219885775
-0.00819396905726662
-0.00993021184376737
-0.00414782464002969
-0.00796885603492388
-0.00796885603492388
-0.00796885603492388
-0.00796885603492388
-0.00796885603492388
-0.0106243584950886
-0.012422317681365
-0.0159377120698478
-0.0119532840523858
-0.0119532840523858
-0.0119532840523858
-0.0134432575778206
-0.0159377120698478
-0.0159377120698478
-0.0159377120698478
-0.0119532840523858
-0.0144641974742765
-0.0119532840523858
-0.0119532840523858
-0.0158736470156426
-0.0119532840523858
-0.0190169906890784
-0.0159377120698478
-0.0190810557432839
-0.0149808372275973
-0.0119532840523858
-0.0199221400873097
-0.0151894913200761
-0.0119532840523858
-0.0139310987910921
-0.0159377120698478
-0.0159377120698478
-0.0159377120698478
-0.0199221400873097
-0.016923385452146
-0.0159377120698478
-0.0133274670795946
-0.0159377120698478
-0.0137159767245048
-0.0159729785840054
-0.0180889143868763
-0.0159377120698478
-0.0170327079762635
-0.00871060881058725
-0.00796885603492388
-0.00796885603492388
-0.00465212478316469
-0.0104345119869035
-0.00796885603492388
-0.010046002341993
-0.00807817855904012
-0.0096574926970835
-0.00846668820395061
-0.00796885603492388
-0.0110669422384486
-0.00796885603492388
-0.00796885603492388
-0.00796885603492388
-0.00796885603492388
-0.00796885603492388
-0.00796885603492388
-0.00796885603492388
-0.00642480841103827
-0.0106684416377842
-0.0147821740908725
-0.00899978688713517
-0.00796885603492388
-0.00796885603492388
-0.0123318027415407
-0.0159377120698478
-0.011963275008141
-0.0119532840523858
-0.0119532840523858
-0.0119532840523858
-0.0119532840523858
-0.0119532840523858
-0.0091443759254088
-0.0113308447565941
-0.00796885603492388
-0.0157037824189666
-0.0139851728895436
-0.0159377120698478
-0.0112556144194185
-0.0228203888268956
-0.0159377120698478
-0.0159377120698478
-0.0159377120698478
-0.0159377120698478
-0.0154598618123301
-0.00967747460859159
-0.0119532840523858
-0.0100659842535016
-0.011654115020083
-0.0144389219158745
-0.0119532840523858
-0.0119532840523858
-0.00613680466170708
-0.00542796974576938
-0.0144730141028158
-0.0116200228331423
-0.010100076440444
-0.0119532840523858
-0.0114542775561441
-0.0230190519636212
-0.014583510954147
-0.0151054443543621
-0.0129189755231763
-0.013174061412782
-0.00796885603492388
-0.00796885603492388
-0.00796885603492388
-0.00796885603492388
-0.00796885603492388
-0.00956697775725992
-0.0119532840523858
-0.0131628961298126
-0.00992256954244344
-0.0127743864849023
-0.0133186504510561
-0.0071036704597112
-0.0044611039477659
-0.0198780569446139
-0.0159377120698478
-0.0122977105545999
-0.0134068167364482
-0.0159377120698478
-0.0090338790740771
-0.00909030182695729
-0.0112767706581429
-0.0030199108738878
-0.00883286728292202
-0.0178361771517004
-0.0120537899479636
-0.0119532840523858
-0.00845787157541193
-0.00261788729157668
-0.0110757588669888
-0.00796885603492388
-0.00796885603492388
-0.00850078039089278
-0.00962340051014185
-0.00441467215063787
-0.0159377120698478
-0.00471971281901716
-0.00864302077473623
-0.0159377120698478
-0.0119532840523858
-0.0119532840523858
-0.00719301107231868
-0.00141062386858111
0.0047590986528526
0.0141385785563562
0.0199209657600947
0.02210978324571
0.0163273960419731
0.0145294368556966
0.0087470496519595
0.0129730496216265
0.0131199873143305
0
0
0.00748336347608123
-0.00612211639708882
-0.000437290096467172
-0.00962105185571143
-0.0119532840523858
-0.0146740258939707
-0.0119532840523858
-0.00796885603492388
-0.0106419917521671
-0.0199221400873097
-0.0222067661596428
-0.0198239828461619
-0.0197299449246931
-0.0202124924910724
-0.0229373536523376
-0.0278909961222336
-0.0296372298644887
-0.0239065681047716
-0.0365904396498504
-0.0373157334956499
-0.0315333462919115
-0.0278909961222336
-0.0318289923425693
-0.0318754241396955
-0.0283259375642702
-0.0292540138664734
-0.0318754241396955
-0.0318754241396955
-0.02910295685409
-0.0284769945766535
-0.0294914664990005
-0.0241040569142822
-0.0278909961222336
-0.0240975889401715
-0.0262840577713569
-0.0273114656419235
-0.0266725674162674
-0.0208901802125302
-0.0303807533054008
-0.0477279149166151
-0.049149107730127
-0.0122154159052837
0.0162022109260281
0.0525175827747558
0.115505522039765
0.21943980169796
0.37925540516895
0.597551990149265
0.794269523563742
0.936037910438451
0.982189419511792
0.810061343826124
0.460434406939705
0.202797282287561
0.0279191799754079
-0.0654771184589905
-0.106230649002668
-0.120911142870746
-0.130556873946826
-0.124774486743089
-0.113926189552874
-0.101256428283226
-0.0868962596861687
-0.0560341331416107
-0.0250879596313297
-0.00640717515396066
-0.00398442801746194
0.0011731712360545
0.00992668886212153
0.000784661591144013
0.0091496695723009
0.00796885603492388
0.010162967167434
0.0119379994497353
0.00579002950506203
0.0151759773826773
0.0145206202271582
0.0183833861103182
0.0239065681047716
0.0210800267207154
0.0205622126401801
0.0239065681047716
0.0239065681047716
0.0259560901990082
0.0317384774027467
0.0318754241396955
0.0353343957752982
0.0358598521571575
0.0420007761385417
0.0389602870151126
0.0412237568487219
0.043333224677485
0.0398442801746194
0.044042655931453
0.0498926311710424
0.0441102439673038
0.0533139876380576
0.0458388444524802
0.0500689637418271
0.0557819922444672
0.0557819922444672
0.0557819922444672
0.0561328867207899
0.0619152739245275
0.0598040354305169
0.0712559643322306
0.0757041323317769
0.0796885603492388
0.073348973231129
0.0776707817875134
0.0836729883667008
0.0876574163841627
0.085264642114928
0.0964514941712811
0.109559719864609
0.0999751088502687
0.11317973946835
0.118962126672088
0.124744513875825
0.127501696558782
0.137148023972898
0.14343940862863
0.148324288735463
0.162137248373899
0.167469409532952
0.179034183940429
0.183283688803249
0.191681614644135
0.205759651127932
0.217324425535406
0.226008584460376
0.236469546332898
0.243050109065178
0.255614667130387
0.265075845345175
0.274759787927876
0.28687881725726
0.290391862991314
0.304143106229975
0.309925493433714
0.310785385362031
0.313521411806265
0.320952471849148
0.334691953466803
0.322899717382555
0.328682104586293
0.330707525449341
0.329137027939838
0.319986184040319
0.307239421768253
0.295852154258776
0.286895854176309
0.260575355563576
0.245414662783545
0.220082186207546
0.195171137136182
0.172041588321231
0.152524416808695
0.13517725519748
0.104934622956237
0.0826355895403814
0.0740178443240469
0.0498508966827787
0.0349505834392485
0.0276306165857335
0.0218482293819958
0.00835324636016011
0.00231459893959644
0
-0.00128131943295519
-0.0101429852559259
-0.0110604742643402
-0.00796885603492388
-0.00897745632119388
-0.020542230728672
-0.0356282711607088
-0.02406349675323
-0.0162104312165338
-0.0239065681047716
-0.0272297673306401
-0.0244808049381887
-0.0130030224888895
-0.0261512303540876
-0.0333136722211086
-0.0325948463494181
-0.0376866098834808
-0.020037334247507
-0.0230143546547608
-0.0354425439721978
-0.0318754241396955
-0.0318754241396955
-0.0318754241396955
-0.0318754241396955
-0.0352562204456596
-0.0318754241396955
-0.0318754241396955
-0.0338885053925601
-0.0320488117180189
-0.0278909961222336
-0.0244684653280023
-0.0211582020503536
-0.0239065681047716
-0.0239065681047716
-0.0186155450959484
-0.0173148400895202
-0.0391760054197402
-0.0557819922444672
-0.0520450078152852
-0.0368137820069482
-0.0413242627443001
-0.0405507664361237
-0.0449201811168517
-0.0478131362095433
-0.0398442801746194
-0.0398442801746194
-0.0355453985222075
-0.0318754241396955
-0.0357857961471969
-0.0335993273160125
-0.0429035768823395
-0.0358598521571575
-0.038993204874841
-0.0438287081920814
-0.0438287081920814
-0.0432703339504944
-0.0398442801746194
-0.043658843595405
-0.0418121039575732
-0.0438287081920814
-0.0438287081920814
-0.0404514348677639
-0.0342570331259618
-0.0517993348922586
-0.0390419853263966
-0.0410603602261558
-0.0517975642270052
-0.0451623310582351
-0.0478131362095433
-0.0478131362095433
-0.0514343301404971
-0.0463784111097739
-0.0438287081920814
-0.0488593516644024
-0.0489533895858696
-0.0444864140020307
-0.052724466201996
-0.0552435999143898
-0.0457459808582272
-0.0515589372672615
-0.0564091288491177
-0.0483209593343255
-0.0478131362095433
-0.0509012314573127
-0.049994311393835
-0.0438287081920814
-0.0557819922444672
-0.0557819922444672
-0.0597664202619291
-0.0578438539488871
-0.0595025177437833
-0.0582323635937974
-0.0557819922444672
-0.0597664202619291
-0.0597664202619291
-0.06299381090108
-0.0572114236973408
-0.0601349479953311
-0.0659173351990703
-0.067735276296853
-0.0757041323317769
-0.061400386487605
-0.067735276296853
-0.0645478494807203
-0.0637508482793911
-0.0609519311081687
-0.064363296619429
-0.0653248687705388
-0.0637508482793911
-0.0637508482793911
-0.0637508482793911
-0.0597664202619291
-0.066629115107467
-0.0704748257227304
-0.0616496007411357
-0.0517975642270052
-0.0517975642270052
-0.0522654235287692
-0.0557819922444672
-0.0557026425876135
-0.049920255383874
-0.0514884042389486
-0.0557819922444672
-0.0524952338599722
-0.0568822817977778
-0.0597664202619291
-0.0604782001703294
-0.0637508482793911
-0.0557819922444672
-0.0557819922444672
-0.0557819922444672
-0.0620181284745338
-0.0597664202619291
-0.0637508482793911
-0.0606086789331701
-0.0597664202619291
-0.0597664202619291
-0.0603336111320554
-0.0613856982229907
-0.0517975642270052
-0.0498209238155126
-0.0553623354050802
-0.058178289495345
-0.052395902291609
-0.0529971853486781
-0.0587795725524141
-0.0637508482793911
-0.0611417776163544
-0.0557819922444672
-0.0580025532625935
-0.0637167560924491
-0.0597664202619291
-0.0597664202619291
-0.0463695944812341
-0.0470702091066646
-0.0438287081920814
-0.0495346907314272
-0.0557819922444672
-0.0557819922444672
-0.0557819922444672
-0.0537060202646121
-0.055671495393136
-0.0580789579269827
-0.0557819922444672
-0.0557819922444672
-0.0588789041207773
-0.0597664202619291
-0.0597664202619291
-0.0552600588442517
-0.0564373493999842
-0.059632996506624
-0.0557819922444672
-0.0557819922444672
-0.0597664202619291
-0.0631072527448756
-0.0637508482793911
-0.0637508482793911
-0.0590005662550774
-0.0557819922444672
-0.0637508482793911
-0.0615755447311756
-0.0597664202619291
-0.0619640543760843
-0.0561816671723464
-0.0531958484854036
-0.0525857487997947
-0.0488229108230314
-0.0517975642270052
-0.0517975642270052
-0.0493783400721534
-0.0522630748743401
-0.0597664202619291
-0.0597664202619291
-0.0597664202619291
-0.0632065843132379
-0.0637508482793911
-0.0606991938729926
-0.0597664202619291
-0.0597664202619291
-0.0632741723490873
-0.0574917851453513
-0.0597664202619291
-0.0597664202619291
-0.0597664202619291
-0.0557819922444672
-0.0524864172314315
-0.0586573140800779
-0.0528749268763419
-0.0630302517424501
-0.0547293088154991
-0.0551178184604059
-0.0456830901312386
-0.0516847187212458
-0.0478131362095433
-0.0513526318292148
-0.0490915106500348
-0.0406777222173197
-0.0309109069961183
-0.0251285197923823
-0.0233305606061047
-0.0199221400873097
-0.0199221400873097
-0.0199221400873097
-0.0237055563136178
-0.0278909961222336
-0.0278909961222336
-0.0278909961222336
-0.0278909961222336
-0.0270710680169303
-0.0239065681047716
-0.0283224145826265
-0.0318754241396955
-0.0358598521571575
-0.0358598521571575
-0.0358598521571575
-0.0358598521571575
-0.0391101697002807
-0.0478131362095433
-0.0478131362095433
-0.0517975642270052
-0.0517975642270052
-0.0517975642270052
-0.0517975642270052
-0.0556803120216757
-0.0586620113889431
-0.0483033260772454
-0.0425209388735079
-0.0522671941940191
-0.0597664202619291
-0.0624836391218687
-0.0632200982506358
-0.0574377110468998
-0.0557819922444672
-0.0538417926743482
-0.0555357229834016
-0.0502458743017966
-0.0511627853210298
-0.0546188119641669
-0.0517975642270052
-0.0430540375566889
-0.0398442801746194
-0.0402304411651015
-0.0460128283688375
-0.0478131362095433
-0.0456243187239272
-0.0514067059276664
-0.0571890931314027
-0.0661765404083539
-0.0726483586056986
-0.0440349952812716
-0.00607861124356861
0.0161246319344243
0.0584392837187564
0.132243198652263
0.25162382618541
0.449910719479856
0.637382774735368
0.786079095836984
0.888469291173591
0.776706478408263
0.442643413862459
0.159779070885304
-0.000139350437944397
-0.0882393138677673
-0.119143752889767
-0.131194597845268
-0.146452273539226
-0.151408264663554
-0.155392692681016
-0.146645046691023
-0.131823486766317
-0.0978568060441129
-0.0667125657351418
-0.0472265414170894
-0.0280338144952534
-0.0261406430602995
-0.016809943608349
-0.0133151274694096
-0.0159377120698478
-0.010006616508157
-0.00675572097585283
-0.00738403190771929
-0.00160164470398029
0
0.00199427366857133
0.00398442801746194
0.00398442801746194
0.00398442801746194
0.0131705384311365
0.0159377120698478
0.0175952015375285
0.0212798641846549
0.0123935191413163
0.0181759063450554
0.0199221400873097
0.0199221400873097
0.0162744962707351
0.0188600620406218
0.0271657022764356
0.0268183307817569
0.0239065681047716
0.0285751518178
0.0318754241396955
0.0364511442584701
0.0438287081920814
0.0360455793456591
0.0392700433412041
0.0578409273052833
0.0584498343148161
0.0557819922444672
0.0597664202619291
0.0624924557504083
0.0552424255871743
0.0517975642270052
0.0600685342867003
0.0696842924955126
0.0679727289293779
0.0748407174218118
0.0830470260892643
0.0836729883667008
0.0866429444618155
0.0908583571376969
0.0902388628343686
0.091246866782605
0.0898503531894595
0.0956327403931991
0.103219554757322
0.118386715511464
0.12351726854132
0.129945021944826
0.140482388481734
0.14343940862863
0.152686061114865
0.161813978110409
0.164112714458176
0.181459876069394
0.191114423774011
0.196896810977748
0.195763603564707
0.207019814322163
0.221297688269901
0.227995215827622
0.236458381049927
0.248023155457402
0.259587929864878
0.271046904729882
0.276829291933622
0.282611679137361
0.28687881725726
0.290192025527374
0.297101152170038
0.305741227952311
0.307539187138586
0.313321574342325
0.306451237195463
0.30496420866249
0.302855318822911
0.297072931619172
0.28417628666193
0.268199785096285
0.253466391456967
0.233116952228948
0.215991958647611
0.180315485024534
0.15618674888988
0.139044718389501
0.123473763387807
0.100344214572856
0.0788292464100984
0.0580695449604034
0.0413765661775004
0.029811791770023
0.0222314453800113
0.00803115042387812
0
-0.00449402180749177
-0.00802939810748341
-0.0156702865700563
-0.027235060977532
-0.0264210045083068
-0.0271745189049754
-0.032956906108712
-0.0329804110018644
-0.0318754241396955
-0.0368572871604604
-0.0401487428538153
-0.0459311300575531
-0.0517135172612908
-0.0500836520064441
-0.0478131362095433
-0.0464877336338905
-0.0407053464301517
-0.0478131362095433
-0.0423434319755054
-0.0398442801746194
-0.0398442801746194
-0.0400041538155413
-0.0438287081920814
-0.0438287081920814
-0.0382749569923303
-0.0358598521571575
-0.0489939497469221
-0.0458400187796943
-0.0486054401020118
-0.0492073011482604
-0.0513937699794471
-0.0456113827757091
-0.0438134235894326
-0.0398442801746194
-0.0434554831498197
-0.0452534423360973
-0.0478131362095433
-0.044864932691187
-0.0449789525241611
-0.0438287081920814
-0.0438287081920814
-0.0475539310002583
-0.0417715437965205
-0.0436994037564561
-0.0438287081920814
-0.0438287081920814
-0.0478131362095433
-0.0478131362095433
-0.0438287081920814
-0.0465183028391894
-0.0478131362095433
-0.0501142212117407
-0.0476985200385323
-0.0457412835493681
-0.0441026016659807
-0.0398442801746194
-0.0398442801746194
-0.0387087241071514
-0.0387933674109021
-0.0478131362095433
-0.0503581418183772
-0.0517975642270052
-0.0496410682630819
-0.0478131362095433
-0.044277163571518
-0.0398442801746194
-0.0478131362095433
-0.0478131362095433
-0.0478131362095433
-0.0450242099940728
-0.0472106788252597
-0.0438287081920814
-0.0480270839489166
-0.0497856573013561
-0.0440032700976175
-0.0438287081920814
-0.0438287081920814
-0.0398442801746194
-0.0459099738188298
-0.0478131362095433
-0.0478131362095433
-0.0473552678635328
-0.0460845357243679
-0.0438287081920814
-0.0456960260794572
-0.0404825820622396
-0.0413230884170847
-0.0438287081920814
-0.0517975642270052
-0.0517975642270052
-0.0550802032918203
-0.044298319810236
-0.0407841180978289
-0.0496863257329928
-0.0478131362095433
-0.0478131362095433
-0.0442924481741655
-0.0411784993788105
-0.0438287081920814
-0.0478131362095433
-0.0478131362095433
-0.0438287081920814
-0.0485390263933793
-0.0438287081920814
-0.0457953576478196
-0.0440485275675292
-0.045406848002909
-0.0478131362095433
-0.0529871943929222
-0.0498068135400802
-0.0478131362095433
-0.0530112956241143
-0.0469879144573457
-0.0420548502369942
-0.0478131362095433
-0.0478131362095433
-0.0441931166058032
-0.0427113817197282
-0.0542761561272047
-0.0417386259367939
-0.047231853412839
-0.0551254607617312
-0.049343073557993
-0.0398442801746194
-0.041910261198721
-0.0438287081920814
-0.0415217515538103
-0.0438287081920814
-0.0491020979438235
-0.0487106433064485
-0.0438287081920814
-0.041130296916435
-0.0398442801746194
-0.0421541818053575
-0.0438287081920814
-0.0419073162062539
-0.0435636313467227
-0.0438287081920814
-0.0438287081920814
-0.0386999074786133
-0.0358598521571575
-0.035103989106062
-0.0344292463770679
-0.0394769267684314
-0.0358598521571575
-0.0437863957146367
-0.042051905244528
-0.046993804442278
-0.0504092709243626
-0.0478131362095433
-0.0438287081920814
-0.0438287081920814
-0.0398442801746194
-0.0446627465728161
-0.0436059438241674
-0.0398442801746194
-0.043662962915085
-0.0421964942828031
-0.0398442801746194
-0.0398442801746194
-0.0428859436252653
-0.0438287081920814
-0.0464818619978169
-0.0468797662604472
-0.0375796360137942
-0.0478913115391842
-0.0461691606792555
-0.0398442801746194
-0.0398442801746194
-0.0365586961173372
-0.0369589673832527
-0.0398442801746194
-0.0391336745934348
-0.0358598521571575
-0.0355377562208835
-0.0339954792622468
-0.0397778664659862
-0.0398442801746194
-0.0398442801746194
-0.0425303518400812
-0.0478131362095433
-0.0438287081920814
-0.0438287081920814
-0.0438287081920814
-0.039100756733708
-0.0398442801746194
-0.0358933480060667
-0.0281019988691418
-0.033462380579063
-0.0358598521571575
-0.0330738709341523
-0.0328634461764242
-0.0326853612892416
-0.0332519558213345
-0.028312423626869
-0.0318754241396955
-0.0278580782625053
-0.0239065681047716
-0.0239065681047716
-0.0224642007036784
-0.0166818134999401
-0.0188682823311271
-0.0130858951273885
-0.0199221400873097
-0.0174588327897599
-0.0156608736034856
-0.00780368874710678
-0.000111671178544936
0.0016862880077307
0.00398442801746194
0
0.00309573754909647
0
0
-0.00398442801746194
-0.00166570975818611
0.00385217858937389
0
0.00372816780064287
-0.00154169896945657
-0.00398442801746194
-0.0142596627014776
-0.0140198430656648
-0.0119532840523858
-0.014515922918298
-0.0199221400873097
-0.015573881645306
-0.00798119564510995
-0.0177233316459393
-0.0199221400873097
-0.0199221400873097
-0.0199221400873097
-0.0288995964085054
-0.0290688646671471
-0.0245266587461328
-0.0303090459498717
-0.0316438431432451
-0.0299205363049614
-0.0318754241396955
-0.0318754241396955
-0.0318754241396955
-0.0306229032467872
-0.0248405160430488
-0.023042556856774
-0.0199221400873097
-0.0239065681047716
-0.0261800288941367
-0.0238195761465945
-0.0218070912317644
-0.0239065681047716
-0.0278909961222336
-0.0213021947505909
-0.0250144999594067
-0.0249851050813219
-0.0166571342795722
-0.022439521483311
-0.0245683932343991
-0.0318754241396955
-0.000460776640775108
0.0286239506182132
0.0646125292218026
0.13048991894672
0.224042586389251
0.385310006925644
0.587953342254961
0.746930751327803
0.878589667144357
0.909710797060821
0.647969224480145
0.298807798241143
0.0979648808455941
-0.0320147929264571
-0.0921238323276753
-0.120579652316754
-0.133942385910504
-0.14343940862863
-0.139454980611168
-0.137226777291715
-0.119365902570796
-0.0925569664067525
-0.0615002960451536
-0.0340395440560887
-0.0141591384570428
0
0.00572126714199989
0.0112791193125732
0.0104409799610135
0.0159377120698478
0.018021326351028
0.0238037135547639
0.0205163588322319
0.0159377120698478
0.0199221400873097
0.0199221400873097
0.0257427387976718
0.0373075132051492
0.0427695567890026
0.0358598521571575
0.0476720701529146
0.0438287081920814
0.0438287081920814
0.0438287081920814
0.0438287081920814
0.0517975642270052
0.048837599087643
0.0493601288258951
0.0557819922444672
0.0557819922444672
0.0557819922444672
0.0597628972802837
0.0597664202619291
0.0633588156528353
0.067735276296853
0.0645313905508571
0.0637508482793911
0.0637508482793911
0.0683641835667548
0.0692928378581361
0.0682160715468352
0.0777424891430454
0.0835248763467814
0.0820231412003426
0.083136366701871
0.0929031819230725
0.0986855691268085
0.0996107004365485
0.0996107004365485
0.100095018668176
0.10815968328982
0.115452603919679
0.11345775226193
0.122931866424935
0.129006954686867
0.131486124576244
0.131486124576244
0.137315539915142
0.145967358969563
0.14703357468479
0.159716849891832
0.167636925475203
0.171330404750863
0.178813190237768
0.19037796464524
0.201942739052719
0.207190256908021
0.209134575797822
0.21792923157412
0.227696046795321
0.235860042985326
0.251409245410263
0.260980920476384
0.26676330768012
0.268561266866397
0.277746202952855
0.284110469291335
0.292906895732882
0.298832101309646
0.301457630902546
0.307240018106286
0.313022405310024
0.318754241396955
0.318754241396955
0.318754241396955
0.31330981272132
0.310785385362031
0.304657975318043
0.293093200910571
0.280845445134738
0.263498283523528
0.249841078206332
0.222526667571935
0.199503514637501
0.178748510496663
0.149836574477983
0.126224478096647
0.103094929281703
0.0858036124341846
0.0742388380267127
0.0626740636192327
0.0511092892117587
0.0396943974894509
0.0300163265428195
0.0201607670470516
0.0112597153902408
0.000627136604652244
-0.00234164516325067
-0.0109376378028233
-0.00953348190835392
-0.0185179841928368
-0.0159377120698478
-0.0181294745479281
-0.0199168464404153
-0.0177409649030197
-0.0235233521067557
-0.0239065681047716
-0.0271192704793073
-0.0318754241396955
-0.0290512314100702
-0.0278909961222336
-0.0254553130375185
-0.0241557823583026
-0.0278909961222336
-0.0278909961222336
-0.0302167603447976
-0.0244343731410616
-0.0278909961222336
-0.0248228827859719
-0.0168193565749251
-0.0199221400873097
-0.0204152749474767
-0.0261976621512127
-0.0239065681047716
-0.0220039837032391
-0.0199221400873097
-0.0278909961222336
-0.0245789621793356
-0.0199221400873097
-0.0199221400873097
-0.0159377120698478
-0.0159377120698478
-0.0123018298742806
-0.0159377120698478
-0.0119932478754014
-0.0119532840523858
-0.0119532840523858
-0.0119532840523858
-0.0119532840523858
-0.0129342601258272
-0.0187166473295632
-0.0193296736587786
-0.0135472864550426
-0.0121572408360066
-0.0179396280397426
-0.0161222649311375
-0.0119532840523858
-0.0119532840523858
-0.00796885603492388
-0.0109917119012756
-0.0119532840523858
-0.0119532840523858
-0.0128490388329
-0.0176763035107786
-0.0120126517977326
-0.0159377120698478
-0.0122824259519497
-0.0159377120698478
-0.0159377120698478
-0.0159377120698478
-0.0188159788979255
-0.0199221400873097
-0.0174323829041423
-0.0162410004218308
-0.0220233876255668
-0.020007361380237
-0.0176504499631966
-0.0234328371669337
-0.0239065681047716
-0.0239065681047716
-0.01898642148378
-0.0159377120698478
-0.0159377120698478
-0.0182828802147412
-0.0199221400873097
-0.0179654815873266
-0.0159377120698478
-0.0159377120698478
-0.0193038201111976
-0.0211017792974757
-0.0239065681047716
-0.0199221400873097
-0.0225112288388394
-0.0235039481844263
-0.0199221400873097
-0.0238924578293366
-0.0199221400873097
-0.023532168735296
-0.0264674363054325
-0.020685049101696
-0.0239065681047716
-0.0210735587466056
-0.0205686806142914
-0.0287955675312831
-0.0278909961222336
-0.0278909961222336
-0.0278909961222336
-0.0318754241396955
-0.0318754241396955
-0.0278909961222336
-0.0278909961222336
-0.0278909961222336
-0.0278909961222336
-0.0278909961222336
-0.0255910854472519
-0.0239065681047716
-0.0239065681047716
-0.0201972078884229
-0.0214450314724708
-0.0239065681047716
-0.0239065681047716
-0.0268389090312991
-0.0239065681047716
-0.0213627368231518
-0.0242639305552071
-0.0235803528488146
-0.0238754209102967
-0.0318754241396955
-0.0318754241396955
-0.0304971217928067
-0.0310672576553993
-0.0278909961222336
-0.0278909961222336
-0.0239065681047716
-0.0239065681047716
-0.01970936667515
-0.0159377120698478
-0.0159377120698478
-0.0103310610988624
-0.0148092203145248
-0.0278909961222336
-0.021827651132454
-0.0230613644410661
-0.0172789772373306
-0.0203788341061057
-0.0216519148997016
-0.0199221400873097
-0.0217882836474694
-0.0239065681047716
-0.0184445061720603
-0.0159377120698478
-0.0159377120698478
-0.0159377120698478
-0.019221525461878
-0.0159377120698478
-0.0156256070893258
-0.0119532840523858
-0.0158613074054593
-0.0199221400873097
-0.0234416537954726
-0.0159377120698478
-0.0190687161331
-0.0239065681047716
-0.0239065681047716
-0.0239065681047716
-0.019198598557907
-0.00813637197717361
-0.0139187591809096
-0.0121742777550466
-0.0159377120698478
-0.0125627873999573
-0.0159377120698478
-0.0129512970448679
-0.0119532840523858
-0.0119532840523858
-0.0159377120698478
-0.0137283163346877
-0.0119532840523858
-0.0119532840523858
-0.0119532840523858
-0.00940123248026333
-0.0151836196840022
-0.0169815788702769
-0.017080314100604
-0.0119532840523858
-0.0119532840523858
-0.0119532840523858
-0.0119532840523858
-0.0119532840523858
-0.0136295811043616
-0.0159377120698478
-0.0146499246627823
-0.0119532840523858
-0.0119532840523858
-0.0146505210008174
-0.0154269439525999
-0.0142620113559067
-0.0158154535975097
-0.01579371936961
-0.0199221400873097
-0.0104215760386841
-0.0112985232349026
-0.0028412296486705
-0.00588231511013618
-0.00796885603492388
-0.00796885603492388
-0.00398442801746194
-0.00614856628270871
-0.00796885603492388
-0.0101776554320478
-0.00796885603492388
-0.0133404030278136
-0.00956755574643852
-0.00896746536544131
-0.0119532840523858
-0.0113431843667787
-0.0103769149068072
-0.0119532840523858
-0.00993373482541319
-0.00796885603492388
-0.0103222444703218
-0.00796885603492388
-0.00921138597207762
-0.00891279492895534
-0.00483844830970537
-0.00796885603492388
-0.00351891737012883
0
0.00421543102474072
0.0178126722585463
0.0199221400873097
0.0239065681047716
0.0271909778348387
0.0228086272058919
0.0199221400873097
0.0199221400873097
0.0199221400873097
0.0196012184782506
0.0180565928651828
0.0238389800689239
0.0199221400873097
0.0128654794139026
0.0159377120698478
0.0127978913780549
0.0100465803311744
0.00123311697057973
0
0
-0.00380809544667347
0
0
0
0
0
-0.00299523165352051
-0.00877761885725737
-0.0119532840523858
-0.00796885603492388
-0.0101870683986231
-0.0119532840523858
-0.0156126894899629
-0.0199221400873097
-0.0144965189959676
-0.0119532840523858
-0.0119532840523858
-0.0119532840523858
-0.00796885603492388
-0.00796885603492388
-0.00769319189577471
-0.00398442801746194
-0.00785601052916617
-0.00796885603492388
-0.00100271030133675
-0.00129660403560611
-0.00398442801746194
-0.00398442801746194
-0.0012783744404897
-0.00450401276324742
-0.0102863999669855
-0.02018429028906
-0.0221038932607808
0.00269725529730271
0.0426590966353773
0.0831358070615651
0.13964547850397
0.229448821907136
0.359887630096722
0.568636659590971
0.766416216005556
0.904457031417641
0.991960409099237
0.839149465624793
0.499876443345554
0.228656279479556
0.0428476036765924
-0.0648488258759901
-0.0972526146922939
-0.110674138042211
-0.134752323060054
-0.127501696558782
-0.121416598992242
-0.0964167872974508
-0.0850824195592141
-0.0550772399504859
-0.0216342632937737
-0.0018702445309851
0.00883169295570798
0.0146140801594446
0.0164120393457215
0.0221944265494578
0.0200079577182732
0.0276741217392465
0.0355571601432106
0.0303801569673688
0.0311842224808413
0.0318754241396955
0.0347801408533926
0.0452652039571051
0.0492813571582189
0.0481428744471448
0.0539252616508809
0.0557819922444672
0.0557819922444672
0.0557819922444672
0.0611170983959835
0.0637508482793911
0.0647130167685348
0.0704954039722777
0.067735276296853
0.070106894327367
0.0717197043143149
0.0737028126999183
0.0757041323317769
0.0757041323317769
0.0757041323317769
0.0769102214275589
0.0766845120671794
0.0725372837651891
0.0809352096060744
0.0872283465781989
0.0859000173589389
0.0916418444016247
0.0916418444016247
0.0916418444016247
0.0956262724190866
0.0988742413077843
0.100672200494055
0.109314046941585
0.108252546884071
0.111563984488934
0.111848465256622
0.115548412506396
0.111668013366157
0.11724234281545
0.123024730019188
0.124822689205463
0.133708456259626
0.1403718916304
0.146154278834143
0.150879863289229
0.152076557767296
0.159656904157306
0.169283827649093
0.175066214852829
0.18483303007403
0.190615417277767
0.200382232498967
0.209123410514854
0.219915862941366
0.225698250145106
0.235848877702359
0.247413652109831
0.25897842651731
0.266558772907319
0.274532326251105
0.276330285437379
0.288518095478685
0.296880158467372
0.305630731100983
0.312040851247399
0.318754241396955
0.32321711600997
0.334781890417449
0.338676381484265
0.336340626305946
0.338676381484265
0.33343179027257
0.330707525449341
0.328964218350697
0.317399443943218
0.306317813440158
0.293692116964352
0.270751836668404
0.257294468815154
0.232566201939823
0.210646861540343
0.186695613954832
0.166868108127036
0.14665209265431
0.129304931043106
0.111957769431877
0.090626179803213
0.0732790181919897
0.0638008030581609
0.0465535510044881
0.0362983165808377
0.0239065681047716
0.0239065681047716
0.0179801698519409
0.0064153954444636
0.00340195254468821
0
0
0
0
-0.00476202529646072
0
-0.00796885603492388
-0.0109817209455213
-0.0119532840523858
-0.0145776393180753
-0.0150619392008486
-0.0102047016557027
-0.0158389584906629
-0.00981619201079199
-0.0155985792145299
-0.0159377120698478
-0.0159377120698478
-0.0170080287558945
-0.0170538642149863
-0.0119532840523858
-0.0119532840523858
-0.00826215343114934
-0.0140445406348905
-0.0159377120698478
-0.0119532840523858
-0.0119532840523858
-0.0092830933276072
-0.0119532840523858
-0.0119532840523858
-0.0119532840523858
-0.0154004940669858
-0.00961810686324466
-0.0119532840523858
-0.0119532840523858
-0.0194425375133985
-0.0159377120698478
-0.0159377120698478
-0.0147680638154368
-0.0119532840523858
-0.0119532840523858
-0.0119532840523858
-0.0119532840523858
-0.0141438722032529
-0.0159377120698478
-0.0159377120698478
-0.0123376743776136
-0.0119532840523858
-0.0119532840523858
-0.00796885603492388
-0.00796885603492388
-0.0073323064636995
-0.00641893677496511
-0.015689672143534
-0.00990728493979116
-0.00796885603492388
-0.00631136656723988
-0.00398442801746194
-0.00923783585769722
-0.0119532840523858
-0.0119532840523858
-0.0146317134165235
-0.0154457515368957
-0.0142432037716132
-0.0159377120698478
-0.0159377120698478
-0.0196370813304409
-0.00796885603492388
-0.0145905752662961
-0.0142020656213807
-0.0199221400873097
-0.0191862589477229
-0.0159377120698478
-0.0119532840523858
-0.014098614733341
-0.0159377120698478
-0.0137101050884322
-0.0123829318475285
-0.0133215954435216
-0.00960517091502357
-0.013912887544836
-0.0171443791548079
-0.0119532840523858
-0.0119532840523858
-0.0119532840523858
-0.00995254240970468
-0.0117675568638791
-0.0183099080895374
-0.0125275208858024
-0.0199221400873097
-0.0169004585481716
-0.0167729247777987
-0.0199221400873097
-0.0199221400873097
-0.0199221400873097
-0.023848374686642
-0.0217782926917185
-0.0239065681047716
-0.0213897830468078
-0.0239065681047716
-0.0170168453844352
-0.0227992325881738
-0.0245971917744484
-0.0278909961222336
-0.0236044540800055
-0.0220222132983532
-0.0239065681047716
-0.0239065681047716
-0.0239065681047716
-0.0239065681047716
-0.020785554997273
-0.0199221400873097
-0.0199221400873097
-0.019376105455907
-0.0135937182521698
-0.0121108090388778
-0.0159377120698478
-0.0159377120698478
-0.0159377120698478
-0.0159377120698478
-0.0159377120698478
-0.0159377120698478
-0.0159377120698478
-0.0159377120698478
-0.0163391576629781
-0.0199221400873097
-0.0199221400873097
-0.0163003498183188
-0.0119532840523858
-0.0147980550315586
-0.0167017954114481
-0.0159377120698478
-0.0159377120698478
-0.0159377120698478
-0.0183810374558916
-0.0196652835324553
-0.0159377120698478
-0.0236432619246593
-0.0222402620085484
-0.0199221400873097
-0.0199221400873097
-0.0199221400873097
-0.0239065681047716
-0.0212193221120933
-0.0164384892313405
-0.0222208764350778
-0.0160499795864298
-0.0218323667901674
-0.0201983822156381
-0.0159377120698478
-0.0159377120698478
-0.0159377120698478
-0.0159377120698478
-0.0126979818205133
-0.0159377120698478
-0.0123094721756026
-0.0159377120698478
-0.0159377120698478
-0.0216877777518934
-0.0203429712539139
-0.0185450120676363
-0.019112799275797
-0.0229179497300077
-0.0199221400873097
-0.0233064593749183
-0.0175240721711776
-0.0199221400873097
-0.0199221400873097
-0.0199221400873097
-0.0159377120698478
-0.0159377120698478
-0.0199221400873097
-0.0199221400873097
-0.0150936827333561
-0.0119532840523858
-0.0159377120698478
-0.0159377120698478
-0.0198551300406394
-0.0159377120698478
-0.0196006404890696
-0.0159377120698478
-0.0192121308441593
-0.0199221400873097
-0.0199221400873097
-0.0232071278065559
-0.0174247406028153
-0.0202330707406147
-0.0217976782651875
-0.0199221400873097
-0.0119532840523858
-0.0119532840523858
-0.0159377120698478
-0.0159377120698478
-0.0199221400873097
-0.0199221400873097
-0.0159377120698478
-0.0182905225160664
-0.0159377120698478
-0.0159377120698478
-0.0196999720574319
-0.0199221400873097
-0.0165483897446359
-0.0159377120698478
-0.0159377120698478
-0.0167364839364276
-0.0199221400873097
-0.0195118778656405
-0.0159377120698478
-0.0199221400873097
-0.0199221400873097
-0.0163044691379996
-0.014506509951722
-0.0119532840523858
-0.0169804045430632
-0.0170814884278202
-0.0119532840523858
-0.0144054260669664
-0.0119532840523858
-0.0119532840523858
-0.0119532840523858
-0.0136284067771479
-0.0124646301588116
-0.0145265102120894
-0.0199221400873097
-0.0177339189397307
-0.0266026307259872
-0.0218681929446452
-0.0102764090112306
-0.0237854839596507
-0.0199221400873097
-0.0199221400873097
-0.0159377120698478
-0.0159377120698478
-0.0130953080939636
-0.0159377120698478
-0.00721534163825642
-0.0116388487662864
-0.0163027168216052
-0.0199221400873097
-0.015961216963001
-0.0177121663629722
-0.0163497266079113
-0.0145517674216337
-0.0183210917213621
-0.0189247050840059
-0.0159377120698478
-0.0159377120698478
-0.0135308275251785
-0.0159377120698478
-0.0159377120698478
-0.0197540461558824
-0.0199221400873097
-0.0233499645284341
-0.0186807844773679
-0.0189770268660619
-0.0190692941222782
-0.013286906918544
-0.0159377120698478
-0.0136754165634543
-0.00789302935971292
-0.00398442801746194
-0.000312682969699696
0.00796885603492388
0.0112520914377761
0.0188253735156436
0.0130429863119059
0.0119532840523858
0.016965716278449
0.0199221400873097
0.0199221400873097
0.0160064744329127
0.00849489040595688
0.00751158402694869
0.00264374083915778
0
0
0
0
-0.00236162707475579
-0.0083191725220706
-0.0159377120698478
-0.00839555883759849
-0.00556903580240064
-0.00796885603492388
-0.0119532840523858
-0.0119532840523858
-0.0167453005649658
-0.0199221400873097
-0.0199221400873097
-0.0221391781237933
-0.0358904213624567
-0.0361872233914691
-0.028248936561845
-0.0267866055981046
-0.035113402072636
-0.0318754241396955
-0.0318754241396955
-0.0272279966653878
-0.0239065681047716
-0.0278909961222336
-0.0278909961222336
-0.0278909961222336
-0.0278909961222336
-0.0244090975826572
-0.029186425830626
-0.028782035245029
-0.0278909961222336
-0.0278909961222336
-0.0278909961222336
-0.0255746265173877
-0.0237766673311101
-0.0179942801273742
-0.0233893503622736
-0.0334147744547229
-0.0425344711597619
-0.0392253455116076
-0.00724939712748615
0.0205116982210965
0.0603266018664768
0.125140161228325
0.227078433250368
0.393988349261132
0.621599789450348
0.809099432220988
0.948298097568779
0.990513270993868
0.780339213773803
0.447417035640334
0.196287087443844
0.0161585773305678
-0.0810639544013817
-0.10359512845401
-0.122720882026887
-0.124224332792004
-0.122969481593523
-0.111797895790952
-0.0974988656045025
-0.0793646753988397
-0.0451334958204797
-0.0145182532238621
0.000557796252406378
0.00805349933867545
0.010070681562362
0.00796885603492388
0.0144436192247342
0.00866123202099356
0.0130588672525916
0.0159377120698478
0.0213562871979026
0.0278909961222336
0.0242351320151578
0.0300175192188955
0.0318754241396955
0.0336134375914471
0.0323238795191304
0.0385588597708447
0.0469761711851977
0.0438287081920814
0.0438287081920814
0.0444011927091055
0.0478131362095433
0.0517975642270052
0.0537794982853914
0.0557819922444672
0.0557819922444672
0.0591733758442218
0.0637508482793911
0.0637508482793911
0.0597664202619291
0.0623807845718619
0.0681631717756014
0.0717197043143149
0.0717197043143149
0.0717197043143149
0.0753550085207061
0.0771529677069787
0.0764417657877583
0.076764458062071
0.0796885603492388
0.0803603764346235
0.0861427636383613
0.0879407228246371
0.0937231100283749
0.0995054972321125
0.101303456418388
0.107085843622126
0.107579556471472
0.116886173041086
0.110648247796912
0.11300694822806
0.120060067570971
0.125842454774705
0.131486124576244
0.133422801164718
0.142939824143213
0.144987575572194
0.150769962775935
0.160536777997131
0.166319165200872
0.176085980422072
0.181868367625809
0.192017820855847
0.203582595263322
0.215147369670798
0.222727716060811
0.234292490468286
0.248438114987932
0.254220502191669
0.267971745430332
0.273754132634068
0.284147506470746
0.293287763076467
0.303292627268236
0.308749377205195
0.310634924687685
0.320401739908882
0.326184127112623
0.331966514316359
0.337748901520098
0.342660809501727
0.342660809501727
0.342660809501727
0.340380880738254
0.33052060558476
0.318955831177288
0.30739105676981
0.299810710379799
0.281644198652459
0.263613477683718
0.240441598042462
0.220224408242534
0.192047160687362
0.170318263134084
0.148700422072482
0.127655083876733
0.110307922265525
0.0929607606543074
0.0743458118963967
0.0654071450710009
0.0498579426460655
0.041060938215335
0.0346972498660323
0.0231324754585622
0.015744920569195
0.00797178267853219
0.000195718144257716
0
0
-0.00242746279421236
-0.0139922372016897
-0.0159377120698478
-0.0159377120698478
-0.0123899961596745
-0.0159377120698478
-0.0120014865147646
-0.0159377120698478
-0.0159377120698478
-0.0159377120698478
-0.0191933232598672
-0.0199221400873097
-0.0199221400873097
-0.0152570793559259
-0.0119532840523858
-0.0159377120698478
-0.0138476298145586
-0.0158413254939524
-0.0176392846802283
-0.0164226082906537
-0.0119532840523858
-0.0150643062041311
-0.0199221400873097
-0.0199221400873097
-0.0164737557454974
-0.0199221400873097
-0.0159377120698478
-0.0159377120698478
-0.0121942596665535
-0.0190516792140574
-0.0239065681047716
-0.0159377120698478
-0.0159377120698478
-0.0143777835052794
-0.00796885603492388
-0.0203135947246836
-0.02171715428112
-0.0239065681047716
-0.0221056639260307
-0.0163232767222914
-0.0199221400873097
-0.016711786367202
-0.0159377120698478
-0.0159377120698478
-0.0125886592963977
-0.0183710465001341
-0.0159377120698478
-0.0159377120698478
-0.0159377120698478
-0.0215784552277747
-0.0204522937780257
-0.0251743736003284
-0.0248252314403983
-0.0208014359379562
-0.0239065681047716
-0.0239065681047716
-0.0261953134967856
-0.027788719561406
-0.0220063323576683
-0.0236203350206922
-0.018410413985117
-0.0159377120698478
-0.0148144956125632
-0.0119532840523858
-0.0199221400873097
-0.0199221400873097
-0.0199221400873097
-0.0177779837335698
-0.0159377120698478
-0.017693358778677
-0.0234757459824181
-0.0185550030233912
-0.0222679045702432
-0.0229279406857611
-0.0199221400873097
-0.0199221400873097
-0.0199221400873097
-0.0201237482164996
-0.0239065681047716
-0.0201090416030267
-0.0239065681047716
-0.0239065681047716
-0.0278909961222336
-0.0278909961222336
-0.0247406064855082
-0.0278909961222336
-0.0278909961222336
-0.0301344840443358
-0.0318754241396955
-0.0318754241396955
-0.0318754241396955
-0.0278909961222336
-0.0344198517593503
-0.0347818931697846
-0.0318754241396955
-0.0332543228246206
-0.0373568716458824
-0.0321763638372477
-0.0358598521571575
-0.0358598521571575
-0.0375702413960767
-0.0363359317494228
-0.0305347553102507
-0.0358598521571575
-0.0318754241396955
-0.0318754241396955
-0.0358598521571575
-0.0358598521571575
-0.0318754241396955
-0.0318754241396955
-0.0318754241396955
-0.0318754241396955
-0.0318754241396955
-0.0278909961222336
-0.0278909961222336
-0.0286797770330584
-0.0318754241396955
-0.031475152873781
-0.0256927656700413
-0.0318754241396955
-0.0300657033324139
-0.0278909961222336
-0.0307334184469755
-0.0294215114598607
-0.0289236976396939
-0.0262141027322201
-0.0291793798673388
-0.0358598521571575
-0.0318754241396955
-0.0318754241396955
-0.0318754241396955
-0.0335405559087012
-0.0358598521571575
-0.0318754241396955
-0.0318754241396955
-0.0278909961222336
-0.0305770677876972
-0.0318754241396955
-0.0318754241396955
-0.0318754241396955
-0.0337844765153378
-0.0321528405952376
-0.0294115388529652
-0.0252384203056764
-0.0290230292080545
-0.0289454318675937
-0.0286345195631438
-0.0318754241396955
-0.0311653965476899
-0.0239065681047716
-0.0318084324418805
-0.0340953888197876
-0.0283130016160514
-0.0265150424297744
-0.0239065681047716
-0.0199221400873097
-0.0254929465549616
-0.0278909961222336
-0.0302878897111489
-0.0318754241396955
-0.0298670401956909
-0.0278909961222336
-0.0278909961222336
-0.0278909961222336
-0.0266596314680503
-0.0239065681047716
-0.0247494231140443
-0.0278909961222336
-0.0243609134691368
-0.0278909961222336
-0.0278909961222336
-0.0278909961222336
-0.03155275021424
-0.026415710861412
-0.0239065681047716
-0.0228197924888607
-0.0228068748894981
-0.0199221400873097
-0.017425914930032
-0.0202318964134026
-0.0196911370800376
-0.0159377120698478
-0.0221873622373153
-0.0128878099798413
-0.0185991045149427
-0.0207779126959478
-0.0239065681047716
-0.0211664223408557
-0.0204758170200358
-0.0239065681047716
-0.0199221400873097
-0.017959013613215
-0.0196987977302183
-0.0223319512755876
-0.0199221400873097
-0.0239065681047716
-0.0239065681047716
-0.0278909961222336
-0.0252954393965917
-0.0278909961222336
-0.0278909961222336
-0.0278704178726887
-0.0239065681047716
-0.0202900714826752
-0.0253365958956815
-0.0278909961222336
-0.0239065681047716
-0.0239065681047716
-0.0272379876211451
-0.0190046327300362
-0.0244355658171274
-0.0277505080547814
-0.0239065681047716
-0.0262170477246872
-0.0239065681047716
-0.0278909961222336
-0.0248075981833214
-0.0199221400873097
-0.0226170283813116
-0.0199221400873097
-0.0222285187364033
-0.0240264779226754
-0.0278909961222336
-0.0241751679317748
-0.0239065681047716
-0.0272338866503219
-0.0307345744253339
-0.0249521872215937
-0.0239065681047716
-0.0239065681047716
-0.0242703985293119
-0.0300527857330548
-0.0279156753426039
-0.0239065681047716
-0.0274778072569564
-0.0265062258012337
-0.0270892976120461
-0.0239065681047716
-0.0267007879671358
-0.0239065681047716
-0.0263122783222255
-0.0239065681047716
-0.025923768677317
-0.0278909961222336
-0.0262623051945989
-0.0239065681047716
-0.0278909961222336
-0.0248528556532314
-0.024758239742585
-0.0305406269463255
-0.0318754241396955
-0.0296143029605119
-0.0278909961222336
-0.0297636076565065
-0.0282048534191484
-0.0194542624366848
-0.00867122297674905
-0.00796885603492388
-0.00796885603492388
-0.00327734541792098
-0.00250504178581614
-0.00366585506283165
-0.0021165321409077
-0.00398442801746194
-0.00796885603492388
-0.00796885603492388
-0.0186167377720205
-0.0301815121795007
-0.0388932769684419
-0.030361927372249
-0.0278909961222336
-0.0255305433746897
-0.0239065681047716
-0.0239065681047716
-0.0314463726825873
-0.0326929852417081
-0.0312723887662344
-0.0294855765140675
-0.0239065681047716
-0.0239065681047716
-0.0265109414589519
-0.0283089006452263
-0.0340912878489654
-0.0358598521571575
-0.0358598521571575
-0.0358598521571575
-0.0438287081920814
-0.0438287081920814
-0.0427783734175415
-0.0426925741354359
-0.0478131362095433
-0.0453533518936371
-0.0398442801746194
-0.0419155548456153
-0.0476979420493513
-0.0461303711834562
-0.0438287081920814
-0.0438287081920814
-0.0376442790571757
-0.0358598521571575
-0.0358598521571575
-0.0398442801746194
-0.0375290848969872
-0.0358598521571575
-0.0358598521571575
-0.0358598521571575
-0.0318754241396955
-0.0352115593137799
-0.038159184842962
-0.0497239592504355
-0.0597664202619291
-0.0469708408405777
-0.014447123857524
0.0108530311967998
0.0516706634923676
0.128124245947743
0.245702831672544
0.442232995675431
0.667145391553154
0.82696616022917
0.942966532747762
0.91964673374971
0.642475235526326
0.333538488909384
0.114399103966387
-0.0363143443123767
-0.109435745773592
-0.12351726854132
-0.149921832468621
-0.143204864290855
-0.13773400407846
-0.120852334765714
-0.111092005867491
-0.0939599296251388
-0.0553646473618038
-0.0283341395059097
-0.0125633653891413
-0.00647593751702092
-0.00398442801746194
-0.00398442801746194
-0.00108205995819481
0
0.00251385841435681
0.00398442801746194
0.00610977678690844
0.00404554807920158
0.00398442801746194
0.00751922632827393
0.0172860415494748
0.0230684287532104
0.0180025004178769
0.0147110630733789
0.0204934502771154
0.0262758374808545
0.0278909961222336
0.0278909961222336
0.0278909961222336
0.0334676742259577
0.0324696428846195
0.0330791645810484
0.0358598521571575
0.0358598521571575
0.0358598521571575
0.0398442801746194
0.0376195998368088
0.0319518471529374
0.0398442801746194
0.0398442801746194
0.0478131362095433
0.0478131362095433
0.0517975642270052
0.0489404536376523
0.0491544197258831
0.0533133913000221
0.0520796963402645
0.057862083544002
0.0636444707477397
0.0597664202619291
0.0667455019437297
0.0743258483337433
0.0796885603492388
0.0845875507315054
0.0876574163841627
0.100662805876336
0.102931532659127
0.0998857865865152
0.109515058732735
0.111563984488934
0.110016991872582
0.114269460076721
0.124675751512762
0.127501696558782
0.132256097902776
0.140606417619316
0.147805300327713
0.155767110399348
0.171309266860996
0.178896659214302
0.190461433621774
0.202026208029254
0.210390619672373
0.220157434893575
0.228751675216753
0.231096825012793
0.238366855436392
0.255240267760912
0.263057488794276
0.270789470185849
0.282202609591765
0.290323100628248
0.292121059814526
0.30095922074434
0.307670262239463
0.308118121280863
0.312227771111983
0.325017423850676
0.31467752777442
0.310785385362031
0.307097181384407
0.299813059034227
0.288248284626755
0.276683510219275
0.262207551123999
0.24812010167362
0.222467877815778
0.198212782237967
0.178731455228763
0.151669781829557
0.132472357598861
0.105799193844566
0.0875704060771251
0.0702232444659171
0.0528760828546985
0.0382955168930208
0.0261506156671944
0.011181540060605
0
-0.00397915271942632
-0.0117563915809129
-0.0151554174819915
-0.026720191889467
-0.0318754241396955
-0.0318754241396955
-0.0366838995821397
-0.0372222735633614
-0.0398442801746194
-0.0398442801746194
-0.0358128240219959
-0.0337204114611364
-0.0395027986648707
-0.0383878024980888
-0.0391142890199603
-0.0398442801746194
-0.0398442801746194
-0.0351803937704475
-0.0318754241396955
-0.0361508008989574
-0.0377553722465458
-0.0358598521571575
-0.0381438818914543
-0.0358598521571575
-0.0438287081920814
-0.0407188603675507
-0.0438287081920814
-0.0438287081920814
-0.0398442801746194
-0.0398442801746194
-0.0399906398781434
-0.0438287081920814
-0.0400864301160061
-0.0422728989471884
-0.0398442801746194
-0.041011579774602
-0.0438287081920814
-0.0438287081920814
-0.0438287081920814
-0.0438287081920814
-0.0438287081920814
-0.0438251668615781
-0.0358598521571575
-0.0430552302327633
-0.0438287081920814
-0.0470378875849743
-0.0478131362095433
-0.0506338059575259
-0.0478131362095433
-0.0502452963126156
-0.0517975642270052
-0.0517975642270052
-0.0517975642270052
-0.0567629866667665
-0.0637508482793911
-0.0505309330586603
-0.0539423169187812
-0.0628727267559565
-0.0624425009716377
-0.0587871965048806
-0.0517975642270052
-0.0596653180283152
-0.0557819922444672
-0.0594790128506325
-0.0582558684869493
-0.0557819922444672
-0.0597664202619291
-0.0597664202619291
-0.0604999527470897
-0.0637508482793911
-0.0594213974216756
-0.0557819922444672
-0.0597229334572725
-0.0637508482793911
-0.0673032798472858
-0.067735276296853
-0.0645713543738689
-0.0637508482793911
-0.0609754360013177
-0.0597664202619291
-0.0597664202619291
-0.0637508482793911
-0.061752455291139
-0.0635627724364586
-0.0661253929535116
-0.0671586908090099
-0.0637508482793911
-0.0667701811640992
-0.0597664202619291
-0.0597664202619291
-0.0602107746705448
-0.0615085346845042
-0.0597105754982234
-0.053928188294491
-0.0517975642270052
-0.0557819922444672
-0.0557819922444672
-0.056858776904622
-0.0597664202619291
-0.0564702672597172
-0.0597664202619291
-0.0597664202619291
-0.0597664202619291
-0.0558707365190372
-0.0557819922444672
-0.0557819922444672
-0.0557819922444672
-0.0557819922444672
-0.0557819922444672
-0.0557819922444672
-0.0523412502039796
-0.0581236374077164
-0.0557819922444672
-0.0577351277628057
-0.0597664202619291
-0.058911243991323
-0.0671134333390964
-0.0585903040334119
-0.0617301430740564
-0.0669476697132464
-0.0637508482793911
-0.0641499452180933
-0.067735276296853
-0.0677246890030607
-0.0637508482793911
-0.0601443426130475
-0.0611864570970811
-0.0637508482793911
-0.0637508482793911
-0.0609213619028688
-0.0517975642270052
-0.0566795176902284
-0.0597664202619291
-0.0597664202619291
-0.063616846534911
-0.0620868908376008
-0.0597664202619291
-0.0637508482793911
-0.0637508482793911
-0.0668483381448841
-0.0637508482793911
-0.0632524197723328
-0.0597664202619291
-0.0637508482793911
-0.0618429702309625
-0.0597664202619291
-0.0622314798758731
-0.0597664202619291
-0.0608972790205364
-0.0637508482793911
-0.0597664202619291
-0.0623067285619031
-0.0597664202619291
-0.0597664202619291
-0.0637161781032734
-0.0597664202619291
-0.0633276684583627
-0.0637508482793911
-0.0637508482793911
-0.0647371179997224
-0.0649510473902407
-0.0637508482793911
-0.0637508482793911
-0.0637508482793911
-0.0637508482793911
-0.0675560170824594
-0.0717197043143149
-0.0683030451561572
-0.0701956569507923
-0.0696478333052828
-0.0606081009439881
-0.0637508482793911
-0.0637508482793911
-0.0637508482793911
-0.0637508482793911
-0.0656134688579097
-0.064074696532057
-0.062714642129145
-0.067735276296853
-0.067735276296853
-0.0706188367718277
-0.067735276296853
-0.072725377956981
-0.0753955503329009
-0.0675066219440082
-0.0676553486508254
-0.0700016727740722
-0.067735276296853
-0.066405754401521
-0.0637508482793911
-0.0686762885472744
-0.0689807328776126
-0.0666302710858316
-0.0574159584701375
-0.0559459852050672
-0.0597664202619291
-0.0635263315950875
-0.067735276296853
-0.0643638746086053
-0.0649357811364507
-0.067735276296853
-0.0637508482793911
-0.0637508482793911
-0.0633429347121527
-0.0597664202619291
-0.067735276296853
-0.0659179131882479
-0.0637508482793911
-0.0663064228331586
-0.0605240356294157
-0.0687756201156368
-0.0717197043143149
-0.0710678701404418
-0.0652854829366989
-0.067735276296853
-0.067735276296853
-0.0638760333953391
-0.0637508482793911
-0.0637508482793911
-0.067735276296853
-0.067735276296853
-0.0668395215163416
-0.0610571343126022
-0.0602736653975299
-0.0637508482793911
-0.0637508482793911
-0.0656675429563585
-0.0640206224336112
-0.0622226632473342
-0.0597664202619291
-0.0626111728922449
-0.0597664202619291
-0.0590152545196936
-0.0557819922444672
-0.0517975642270052
-0.0496369489433994
-0.0438545617396671
-0.0416163858133145
-0.0438287081920814
-0.0398442801746194
-0.0430258353546813
-0.0428336218432076
-0.0398442801746194
-0.0410574335825457
-0.0502176720997838
-0.0562181263625721
-0.0657668745247209
-0.067735276296853
-0.0661077596964338
-0.0568998967059907
-0.0570209991999757
-0.0567294541201396
-0.0566324895550651
-0.0650633332556868
-0.0672732886311658
-0.0614909014274229
-0.0557085142236906
-0.0555404386411203
-0.0634358166552575
-0.0652337758415379
-0.067735276296853
-0.0699241121313254
-0.0785965094352905
-0.0757041323317769
-0.0807118672489828
-0.0873400177567478
-0.0836729883667008
-0.087586305366667
-0.089914996232843
-0.0876574163841627
-0.0809963113189589
-0.0788404300419288
-0.0827231594877405
-0.0741929842187563
-0.067735276296853
-0.0700945547171836
-0.071546894725176
-0.067735276296853
-0.067735276296853
-0.067735276296853
-0.067735276296853
-0.0689290257824516
-0.065736286970563
-0.057392471925843
-0.0637508482793911
-0.0637508482793911
-0.0637508482793911
-0.0677917173985862
-0.0793564918060649
-0.0764247105198637
-0.0446092137658385
-0.0221685363041699
0.00944244402590412
0.0728724073940046
0.172569613543728
0.34503917073928
0.545245593609899
0.697229847423392
0.834053408456598
0.827186786954631
0.549278086473616
0.21394035395755
0.0201370419676268
-0.0869251316216413
-0.130481698656253
-0.147939898410232
-0.160664348465236
-0.163106444477482
-0.161169226597546
-0.171069447225182
-0.149244686038619
-0.122780176376814
-0.0921807963720208
-0.0718871835588576
-0.0550220098736892
-0.0441237395558392
-0.0278909961222336
-0.0300604280343783
-0.0279080330412769
-0.0278909961222336
-0.0278909961222336
-0.0278909961222336
-0.0247006243136349
-0.0199221400873097
-0.0227240022509984
-0.0193067467548077
-0.0135243595510648
-0.0159377120698478
-0.0118880263221031
-0.00414605397478093
-0.00398442801746194
-0.00398442801746194
-0.00398442801746194
-0.000938645247138939
0
0.00265727312541775
0.00796885603492388
0.00570009255441679
0.00796885603492388
0.00984910987052031
0.00827507103051498
0.0109523444162954
0.0159377120698478
0.0170409466156264
0.0199221400873097
0.0166524369707157
0.0224348241744551
0.0165901425817624
0.0281549169892411
0.0279532905111868
0.0296266609195576
0.0354090481232943
0.0372070073095709
0.0429893945133082
0.0438287081920814
0.0438287081920814
0.0449689799172655
0.0517975642270052
0.0559636184621486
0.0597664202619291
0.0635439648521622
0.0661442005378013
0.0671398832247141
0.0769066984459144
0.0826890856496519
0.0868433599149359
0.0862850040222039
0.0956262724190866
0.0956262724190866
0.103669202812821
0.113398980854621
0.119181368058354
0.120979327244634
0.130006160355415
0.140512957687033
0.146295344890767
0.156731627542925
0.165828975333167
0.171892320322951
0.18345709473043
0.191144992979307
0.196927380183046
0.206198133900468
0.221747336325406
0.230212253864106
0.239979069085306
0.245761456289044
0.251543843492781
0.25732623069652
0.263108617900256
0.268891005103999
0.270941105187412
0.27248692347655
0.274925533204874
0.270941105187412
0.270941105187412
0.270172306188095
0.261823160798771
0.250638675745696
0.242678040001281
0.227137057866844
0.211579635151399
0.192839464579831
0.172293114531476
0.140181990075652
0.125476257346879
0.10547944656272
0.077815930466116
0.0604687688549002
0.0431216072436905
0.0257744456324727
0.0122589027099466
-0.00329029971500115
-0.0148550741224676
-0.0211787802998996
-0.0269611675036335
-0.0287591266899128
-0.0372076036475994
-0.0443083291148499
-0.0500907163185852
-0.0517064529491473
-0.0497022066736786
-0.0481105345765955
-0.049313697028768
-0.0583946042380048
-0.0546699410701532
-0.0576175849481848
-0.0637508482793911
-0.0612293475637112
-0.0601014521464253
-0.0637508482793911
-0.0637508482793911
-0.0597664202619291
-0.0633088608740667
-0.0651068200603434
-0.0708892072640807
-0.0667678141608114
-0.0637508482793911
-0.0717197043143149
-0.0693427926369072
-0.0637508482793911
-0.0657392503118888
-0.067735276296853
-0.067735276296853
-0.064337424722991
-0.067735276296853
-0.064725934367901
-0.0637508482793911
-0.0637508482793911
-0.0637508482793911
-0.0704478161967872
-0.0715821428904711
-0.0616102332561512
-0.0637508482793911
-0.0597664202619291
-0.0662729453331088
-0.0717197043143149
-0.0717197043143149
-0.067735276296853
-0.067735276296853
-0.0634610738648083
-0.063941887463649
-0.079392354658255
-0.070020480358365
-0.0712324594390763
-0.067735276296853
-0.0708439497941672
-0.0668130716307213
-0.0664710121317953
-0.067201581275632
-0.0614191940718968
-0.0637508482793911
-0.0618077037168032
-0.0597664202619291
-0.0637508482793911
-0.0637508482793911
-0.067735276296853
-0.0647711918378109
-0.0557819922444672
-0.0557819922444672
-0.0597664202619291
-0.0619534854311513
-0.067735872634891
-0.0717197043143149
-0.0717197043143149
-0.067735276296853
-0.067735276296853
-0.072741240548809
-0.0728846369110069
-0.067735276296853
-0.067735276296853
-0.0674907593521803
-0.061708372148441
-0.0674472908963771
-0.0700657378282749
-0.067735276296853
-0.0664698194557229
-0.0637508482793911
-0.0597664202619291
-0.0597664202619291
-0.0597664202619291
-0.0620528169995135
-0.0638507761857914
-0.067735276296853
-0.067735276296853
-0.0637508482793911
-0.067058184913432
-0.0666144084939965
-0.0608320212902588
-0.0557819922444672
-0.0608426269329117
-0.0673914277838179
-0.0637508482793911
-0.0598110813938047
-0.0575352902988695
-0.0668689347432806
-0.0650056994778683
-0.0597664202619291
-0.0637508482793911
-0.0637508482793911
-0.067735276296853
-0.0701210046027996
-0.0757041323317769
-0.0717096950097036
-0.067735276296853
-0.067735276296853
-0.0711419444992564
-0.0704995049430983
-0.067735276296853
-0.0725513940406231
-0.0757041323317769
-0.0757041323317769
-0.0734629930641024
-0.0717743747508018
-0.0757041323317769
-0.0720535435227387
-0.073183824292166
-0.0757041323317769
-0.0757041323317769
-0.0728305628125601
-0.067735276296853
-0.0652502164225442
-0.0637508482793911
-0.0637508482793911
-0.0637508482793911
-0.0694433168813419
-0.0682137045435527
-0.0690548072364319
-0.0717197043143149
-0.067735276296853
-0.067735276296853
-0.067735276296853
-0.067735276296853
-0.0680432803065515
-0.0757041323317769
-0.0757041323317769
-0.0757041323317769
-0.0689813108667971
-0.067735276296853
-0.067735276296853
-0.0629644160229942
-0.0597664202619291
-0.067735276296853
-0.0655393944990919
-0.0637696742125448
-0.073527076467166
-0.0757041323317769
-0.0663164137889119
-0.0669676699736086
-0.0757041323317769
-0.0757041323317769
-0.067735276296853
-0.0701750787012492
-0.0717197043143149
-0.067617118795337
-0.067600100225154
-0.066072493182274
-0.0637508482793911
-0.0610406937315981
-0.0698953135912743
-0.0765898961565359
-0.0796885603492388
-0.0752068781519278
-0.0694244909481947
-0.0718284488492542
-0.0718907248893503
-0.0640306133893624
-0.0557819922444672
-0.0590981455070471
-0.0626211638479977
-0.0597664202619291
-0.0597664202619291
-0.0597664202619291
-0.0597664202619291
-0.0619170445897803
-0.0637508482793911
-0.0659731616139118
-0.0601907744101764
-0.0597664202619291
-0.0597664202619291
-0.0597664202619291
-0.0597664202619291
-0.0569751637408897
-0.0661453932138773
-0.0639589243826927
-0.069741311586432
-0.0755236987901679
-0.0740866066871078
-0.0717197043143149
-0.0757041323317769
-0.0726771571457453
-0.0757041323317769
-0.0730656667906559
-0.0796885603492388
-0.0751886485568182
-0.0638143353444204
-0.0695967225481564
-0.0717197043143149
-0.0742311957253834
-0.0717197043143149
-0.0706352773528315
-0.067735276296853
-0.0717197043143149
-0.0717197043143149
-0.0717197043143149
-0.0717197043143149
-0.0678163782700996
-0.0654677054924224
-0.067735276296853
-0.0650791958475124
-0.070861583051247
-0.0686751142200643
-0.0689819072048316
-0.0643021765576924
-0.0724338512259984
-0.0755413136983855
