-0.0966400671895609
-0.0901326044316168
-0.100022410519705
-0.0924383251378409
-0.0958206684679854
-0.100841809241281
-0.0948965213025675
-0.0973069904526936
-0.098278864632712
-0.100841809241281
-0.100841809241281
-0.100841809241281
-0.102585355128274
-0.10140398406052
-0.0924383251378409
-0.0924383251378409
-0.0891607302515387
-0.0952584936487351
-0.101356257045911
-0.1026330821429
-0.100946557685123
-0.101042011714387
-0.0966400671895609
-0.100841809241281
-0.100841809241281
-0.0984790671058412
-0.0893609327246418
-0.0924383251378409
-0.084435245980607
-0.0843968133805335
-0.0859785893944973
-0.0881888560714607
-0.0882365830861209
-0.0882365830861209
-0.0896751780561689
-0.0957729414533252
-0.0914094295285807
-0.0882365830861209
-0.0888557793345933
-0.0924383251378409
-0.0880270861984361
-0.0798238045681589
-0.0676282777737325
-0.073125433751598
-0.0792231971487899
-0.0798330989826808
-0.0734688172685979
-0.0681042929782908
-0.068657173382987
-0.0676945936174972
-0.0737923570147066
-0.0672278728275207
-0.0691809156021988
-0.0675805507591263
-0.0691995044313623
-0.0867118285013341
-0.0893702271392234
-0.089408659739302
-0.083310896342086
-0.0772131329449296
-0.0798330989826808
-0.0820433656596441
-0.0758222649894847
-0.0690284401436963
-0.0751262035409051
-0.0770222248863486
-0.0798330989826808
-0.0808142675772808
-0.0840348410344008
-0.0798330989826808
-0.0798330989826808
-0.0756313569309607
-0.0776891481494508
-0.0798330989826808
-0.0814811908403772
-0.0804907278312318
-0.0852732335313036
-0.0851021692437396
-0.0924383251378409
-0.0924383251378409
-0.0953830858636139
-0.0794048107927894
-0.0840162522053568
-0.0737260411709428
-0.0752309519846949
-0.0729252312784708
-0.0756313569309607
-0.0703436978407982
-0.0702098112113993
-0.0714296148792407
-0.0688573758561498
-0.0714296148792407
-0.0714296148792407
-0.0714296148792407
-0.0756313569309607
-0.0719824952839572
-0.0727727558199684
-0.0723921946447509
-0.0714296148792407
-0.0714296148792407
-0.0719533570983928
-0.0732115933663379
-0.0537103038054456
-0.00492819662796721
0.0282295683523464
0.0738270247887875
0.157489344120632
0.296227971673904
0.503854368211647
0.735382234071513
0.88663690846138
0.991239857445275
0.901252434120682
0.577944617093935
0.283242419644238
0.108291498173637
-0.0344654930256982
-0.100754394684432
-0.122790745610482
-0.162999559338795
-0.159666197965362
-0.159666197965362
-0.138001113800142
-0.121822636256315
-0.0935837734893431
-0.0460970802380845
-0.0228105325167323
-0.0168069682068802
-0.0104240976637821
-0.00928919866873231
-0.0126052261551601
-0.0079274688989414
-0.00420174205172004
-0.00420174205172004
-0.00223940486251995
-0.00385835853463628
-0.00264910422330767
0.00689731834769736
0.010319349219911
0.00724070186478088
0.0111387479414865
0.00420174205172004
0.00387820230567095
0.00221956109148528
8.61596147399697e-05
0.0120232075648352
0.0131010851306938
0.00980364647334992
0.0126052261551601
0.0219991732677222
0.0252104523103202
0.0288314307137061
0.0252104523103202
0.0250393880227737
0.0189416246255881
0.0168069682068802
0.0184643544790987
0.0245621178762911
0.0294121943620403
0.0356996108758467
0.0420174205172004
0.0392834116210849
0.034042224603598
0.040139988000808
0.0336139364137603
0.0355285465883002
0.0416263099854566
0.0492289841964246
0.0512217145131721
0.0557178581253249
0.0588243887240806
0.0595099008162572
0.0656076642134136
0.0675036855589095
0.0692577808024155
0.0672278728275207
0.0840348410344008
0.0876929970959265
0.0868841477308713
0.087283297735133
0.0914955891433791
0.0939140977659976
0.105576587926675
0.111674351323866
0.122097194045653
0.132273362221673
0.130540365691223
0.143486465479434
0.158274075067983
0.158466238068598
0.158560437155885
0.168069682068802
0.170755963950257
0.177614849697772
0.191354974848069
0.197452738245226
0.218022610957481
0.218929424235846
0.224149512540254
0.223540865648354
0.227941555231186
0.228152307060862
0.231733597922119
0.237831361319275
0.239499296948042
0.243747511072372
0.251922909459141
0.250390115401825
0.244292352004618
0.242396330659173
0.236298567261971
0.217595577709641
0.217079874962999
0.212347606161666
0.19033788353739
0.176170725139333
0.155722934757917
0.139659755014446
0.110323170910573
0.101585597704631
0.0817303752701077
0.0664865942482125
0.0481933040565647
0.0325385687318903
0.0203430419374585
0.0103763706491531
0.00015373040043542
-0.0144243823003797
-0.0130917907161716
-0.00702065562058374
-0.0324380949346502
-0.0316144215664725
-0.0310020098485627
-0.0347940525394727
-0.0420174205172004
-0.0381763958696168
-0.0482955426164548
-0.0424761018346389
-0.0411490398389616
-0.0497818646011335
-0.0462191625689204
-0.0493721652403455
-0.047066444534074
-0.0504209046206405
-0.0504209046206405
-0.0504209046206405
-0.0504209046206405
-0.0465730954425171
-0.0343775686482037
-0.0408440889220288
-0.0462191625689204
-0.0431219263846867
-0.0462191625689204
-0.0420174205172004
-0.0446082483693351
-0.0582541744322589
-0.0460586476379465
-0.0501717201908827
-0.0409048751772426
-0.0372813868898079
-0.0336139364137603
-0.0401294386442689
-0.0462191625689204
-0.04337111081446
-0.0383580095136762
-0.0444557729108674
-0.0502882729332323
-0.0462191625689204
-0.0462191625689204
-0.0420174205172004
-0.0385024454996479
-0.0420174205172004
-0.0420174205172004
-0.0454196076184279
-0.0420174205172004
-0.0420174205172004
-0.0374456666468217
-0.0377958346943861
-0.0401412429427988
-0.0378156784654804
-0.0434838987308143
-0.0462191625689204
-0.0430741993700264
-0.0432663623706583
-0.0391098374495573
-0.0462191625689204
-0.0380530585967309
-0.0420174205172004
-0.0420174205172004
-0.0395393805813794
-0.0420174205172004
-0.0420174205172004
-0.0388073964166073
-0.0345182398080841
-0.0406160032052801
-0.0378156784654804
-0.0402063038444864
-0.0419325158444523
-0.0397966044836928
-0.0497713152445608
-0.0546226466723605
-0.0511553986694681
-0.0492593773239722
-0.0462191625689204
-0.0462191625689204
-0.0462191625689204
-0.0409910347919211
-0.0316503442825696
-0.0501506214778573
-0.0564510972321021
-0.0476509730083885
-0.039234429664434
-0.0420174205172004
-0.0430264723553663
-0.0462191625689204
-0.0468185150462984
-0.0529162784434903
-0.0462191625689204
-0.0462191625689204
-0.0422374667613977
-0.0420174205172004
-0.0455894169639352
-0.0420174205172004
-0.0451797176031475
-0.0428739968968758
-0.0544769557443986
-0.0532820156157149
-0.0420174205172004
-0.0378156784654804
-0.0416820764726482
-0.0500483829179406
-0.0477426622117164
-0.0435818626441757
-0.0400432790294969
-0.0462191625689204
-0.0420174205172004
-0.0498177873171706
-0.0579411840427828
-0.0462191625689204
-0.0584784953230103
-0.0510611995821984
-0.0498959074594904
-0.0490498804363469
-0.0462191625689204
-0.0536613218488547
-0.0475635584516578
-0.0540710212096426
-0.0479732578124516
-0.0546226466723605
-0.052584699224965
-0.0425529670349155
-0.0478474106555222
-0.0504209046206405
-0.0521855492207445
-0.0462191625689204
-0.0538137973073458
-0.0450111631996423
-0.0470174625773632
-0.0523274753226489
-0.0462297119254927
-0.0462191625689204
-0.0424376692345606
-0.0434931931453361
-0.0495909565424923
-0.0514869778879887
-0.0546226466723605
-0.0552790205789208
-0.0562719934720841
-0.0506675791664128
-0.056765342563569
-0.0588243887240806
-0.0647591273062216
-0.0672278728275207
-0.0617028336061671
-0.062043707239196
-0.0663142750186751
-0.0630261307758006
-0.0630261307758006
-0.0630261307758006
-0.0586359905495413
-0.0504209046206405
-0.0581933881770449
-0.0646066518477414
-0.0637513304101059
-0.055793468383508
-0.0557575456674538
-0.0511820269709942
-0.0546226466723605
-0.0507723276102552
-0.0523752023373092
-0.0462774389400941
-0.0522586495949038
-0.0583564129921131
-0.0559682974971288
-0.0470968376616812
-0.0608610812294564
-0.0672278728275207
-0.0624174838839007
-0.0563197204867088
-0.059023336255193
-0.0588361930226438
-0.050631656450316
-0.0579931857039298
-0.0630261307758006
-0.0588243887240806
-0.0651675717250188
-0.068832002496648
-0.0560624965843994
-0.0546226466723605
-0.0546226466723605
-0.0546226466723605
-0.0526801532542548
-0.0580979341477243
-0.0572915946667628
-0.0580514620751145
-0.0619030360792703
-0.0588243887240806
-0.0553360420081029
-0.0588243887240806
-0.0588243887240806
-0.0588243887240806
-0.0588243887240806
-0.0588243887240806
-0.0588243887240806
-0.0546226466723605
-0.0546226466723605
-0.0578537694860525
-0.0603559278393706
-0.0666669529502805
-0.0630261307758006
-0.0589756092405328
-0.0650733726377181
-0.0751143992422901
-0.0749204714793083
-0.0601607451343271
-0.0617982876354702
-0.0588243887240806
-0.0588243887240806
-0.0615385538491014
-0.0676363172462639
-0.0714296148792407
-0.0672291277695711
-0.0630261307758006
-0.0630261307758006
-0.0573393216814231
-0.0580037350604547
-0.0566736533603406
-0.0533922936479467
-0.0539569783512785
-0.0504209046206405
-0.0593363266446687
-0.0650758825217904
-0.0670741424270255
-0.0612838398308574
-0.0588243887240806
-0.0559552382565158
-0.0652816145833553
-0.068150765050888
-0.0770674420169288
-0.0793199061201009
-0.0756313569309607
-0.0714296148792407
-0.0714296148792407
-0.0636385424937927
-0.0646159462622633
-0.0567703623317112
-0.0611846209754194
-0.0703040102986692
-0.0698887813494894
-0.06035969266544
-0.0630261307758006
-0.0630261307758006
-0.0630261307758006
-0.0606714281128662
-0.0742553129786256
-0.069992274851243
-0.0738945955744831
-0.0714296148792407
-0.0743532768919286
-0.0798330989826808
-0.0748051736788925
-0.0716378568248749
-0.0756313569309607
-0.0756313569309607
-0.0781385350523737
-0.068450186379403
-0.0630261307758006
-0.0630261307758006
-0.0630261307758006
-0.0630261307758006
-0.0714296148792407
-0.0690681276858252
-0.0631376637500654
-0.0675260392139857
-0.0591783215977369
-0.0672278728275207
-0.0603516531929673
-0.0526856828427455
-0.0618527991805693
-0.058101698973816
-0.0520039355766598
-0.0507338950101171
-0.0612496818770989
-0.0672278728275207
-0.0438267724276087
-0.0035448583247422
0.0321256143652991
0.0874789902605629
0.159517761851821
0.286187219588395
0.488061510827877
0.709911577372213
0.877172645377248
0.978562550556563
0.924916013493155
0.607082449750231
0.297902378096548
0.10945651577747
-0.0363841425449024
-0.1142744735905
-0.12581915606679
-0.163867940017082
-0.161554179838326
-0.155432298023754
-0.132945305252858
-0.118452097224794
-0.0873925561266635
-0.0460742167627211
-0.0356463542726968
-0.020470144036555
-0.0161320054712759
-0.0126052261551601
-0.00840348410344008
-0.0105647688236926
-0.0126052261551601
-0.00665189874397506
-0.00784934875667308
-0.00285985605304298
0.00323790734415927
0.00326955541383093
0.00282820798336549
0
0.00483701724514529
0.00840348410344008
0.00840348410344008
0.00449865349619386
0.0132008138063954
0.0175135790121419
0.00539115259191182
0.0176597797604524
0.0160272570274822
0.0126052261551601
0.0129752379737644
0.019073001370975
0.0251707647681317
0.0252104523103202
0.0252104523103202
0.0252104523103202
0.0252104523103202
0.0252104523103202
0.0252104523103202
0.0300394300829843
0.0361371934801764
0.0417998841570444
0.0378156784654804
0.0378156784654804
0.0378156784654804
0.0450154378460825
0.0475133215529561
0.0504209046206405
0.0462191625689204
0.0434386816001953
0.0382904387279284
0.0467589837330758
0.0504859655222953
0.0565837289195103
0.0588243887240806
0.0703306386002442
0.0721839526991628
0.0779147239821084
0.0840348410344008
0.0840348410344008
0.0840348410344008
0.0846794106423976
0.0946566312872755
0.10075439468449
0.115255642185089
0.121353405582298
0.127451168979461
0.130254003603321
0.140635903840905
0.147060971810201
0.155464455913641
0.157939985965397
0.176642975517738
0.180674908223962
0.188598612296818
0.201683618482562
0.205235771158202
0.215535276607097
0.218490586689442
0.219327319298023
0.228157836649292
0.231522846092389
0.237620609489599
0.239516630835036
0.245614394232252
0.251712157629408
0.259004351334941
0.249506910720647
0.248996737562396
0.249114545246853
0.243016781849636
0.234338739956917
0.218216028900104
0.214288844637722
0.202089043196916
0.183115770501695
0.173361105985011
0.145857992209124
0.124714140378996
0.101277627083356
0.0825615782903451
0.0614307857009304
0.0479931015835459
0.0332476894212526
0.0189906065822994
0.00506459314157617
-0.001608404315507
-0.00770616771270008
-0.0119995989675798
-0.0271981628589853
-0.0344029420076802
-0.040500705404885
-0.042396726750327
-0.0530451453047718
-0.0629957376481339
-0.0522865328384701
-0.0621459457988922
-0.0630261307758006
-0.0596741805733228
-0.0546226466723605
-0.0546226466723605
-0.0504209046206405
-0.0554860075824453
-0.0588243887240806
-0.0609472408442252
-0.0630261307758006
-0.0588243887240806
-0.0588243887240806
-0.0588243887240806
-0.0620238634681155
-0.0639198848135644
-0.0700176482107676
-0.0635101854527706
-0.0672278728275207
-0.0631004860919768
-0.0691982494891926
-0.0675632168721325
-0.0645868080766846
-0.0637711741812004
-0.0534716687322645
-0.0534679039061728
-0.0615435736171834
-0.0546226466723605
-0.072092773316282
-0.077605498418724
-0.0715077350215091
-0.0690457740306895
-0.0677156923305824
-0.0616179289334192
-0.055520165536216
-0.0514194071022339
-0.060411694326502
-0.0636149338966061
-0.0672278728275207
-0.0628470270157826
-0.0588243887240806
-0.0588243887240806
-0.0588243887240806
-0.0588243887240806
-0.0546226466723605
-0.0577743944017356
-0.0621801037526974
-0.0615664370926677
-0.0630261307758006
-0.0630261307758006
-0.0630261307758006
-0.0611034811287889
-0.0626430597165284
-0.0657149225412969
-0.0596171591441412
-0.0652326326266722
-0.0714296148792407
-0.0679214243921685
-0.0740191877893252
-0.0711457626753799
-0.0672278728275207
-0.0672278728275207
-0.0689980470160292
-0.075095810413238
-0.0729104072755176
-0.0737408651739277
-0.0704788394123071
-0.0672278728275207
-0.0761724330371064
-0.0798330989826808
-0.0798330989826808
-0.0778057008918576
-0.071707937494671
-0.072395959470902
-0.0637141527520188
-0.0744233575617251
-0.0714296148792407
-0.0756313569309607
-0.0756313569309607
-0.0756313569309607
-0.071062112944683
-0.0714085161660962
-0.0798330989826808
-0.0760621550048932
-0.0770965802025246
-0.0764718543656811
-0.0714296148792407
-0.0714296148792407
-0.0798330989826808
-0.0772912530872571
-0.0758674821201608
-0.0798330989826808
-0.0798330989826808
-0.0739089097570875
-0.0750480833985849
-0.07852035116962
-0.0788401260895038
-0.0798330989826808
-0.0742349593871424
-0.0719229639707326
-0.0756313569309607
-0.0798330989826808
-0.0818127700588741
-0.0840348410344008
-0.0798330989826808
-0.0798330989826808
-0.0851951133890191
-0.0821239956860128
-0.0805836719765111
-0.0840348410344008
-0.0889183303522057
-0.0944031722110819
-0.0841724924898939
-0.0858620366520919
-0.0919598000493006
-0.0868190868292177
-0.0840348410344008
-0.0830270441382856
-0.0798330989826808
-0.0882365830861209
-0.0882365830861209
-0.0840348410344008
-0.0840348410344008
-0.0840348410344008
-0.0899113032453336
-0.0924383251378409
-0.0911733043394219
-0.0850755409422245
-0.089091904523746
-0.0896869823547315
-0.0886822051629522
-0.0924383251378409
-0.0924383251378409
-0.0943702691993744
-0.0928121017825917
-0.0924383251378409
-0.0890200590916587
-0.0787205536427232
-0.0816484903017492
-0.0889394290652905
-0.0898394578132346
-0.0840348410344008
-0.0862240089982191
-0.0923217723954339
-0.0882365830861209
-0.0882365830861209
-0.0951778636223257
-0.09431022806583
-0.0933983950192963
-0.0909278847356957
-0.0840348410344008
-0.0791420573021231
-0.0717109571989996
-0.0839064839933709
-0.0882365830861209
-0.0840348410344008
-0.0840348410344008
-0.0786158051989232
-0.0787446720601973
-0.0882365830861209
-0.0855329673176722
-0.0890323732104626
-0.0943461507819003
-0.0966282628909382
-0.0975066831055102
-0.0806761063015021
-0.0882365830861209
-0.0882365830861209
-0.0977048855148587
-0.0949201298998141
-0.083379722069891
-0.0823842392926272
-0.083789421430679
-0.0798330989826808
-0.0879080235719858
-0.0882365830861209
-0.0846088201522621
-0.0924383251378409
-0.086002197991711
-0.0849471839012093
-0.0882365830861209
-0.0840348410344008
-0.0864335058858782
-0.0883295272313418
-0.0924383251378409
-0.0885533383016892
-0.0829916312425369
-0.0882365830861209
-0.0852044078035409
-0.0943677593152725
-0.0993220744245767
-0.089782436384053
-0.0840348410344008
-0.0885272198204025
-0.0924383251378409
-0.0984765572217738
-0.100841809241281
-0.100841809241281
-0.0975189972243722
-0.095622975878923
-0.0924383251378409
-0.095425283289861
-0.0882365830861209
-0.0924383251378409
-0.0945320390723684
-0.0926503319095669
-0.0899205976598546
-0.096018361057047
-0.0953657519766201
-0.0924383251378409
-0.0924383251378409
-0.0924383251378409
-0.0928932416291942
-0.0989910050264032
-0.104953117031882
-0.0946988287135048
-0.0924383251378409
-0.0909067860225727
-0.0848090226254178
-0.0817911615254403
-0.0756313569309607
-0.0756313569309607
-0.0782395186700897
-0.0801355400155851
-0.0884317657910828
-0.088343841414006
-0.0780443359651277
-0.0719465725679186
-0.0756313569309607
-0.078906441933209
-0.089205947382098
-0.0895729394963864
-0.0899155778916885
-0.0983861229606202
-0.0924383251378409
-0.0903923382179739
-0.0842945748207866
-0.0807622659162544
-0.0756313569309607
-0.0810596871809602
-0.0871574505781592
-0.0790162101451942
-0.0756313569309607
-0.0764457358843463
-0.0863380518565833
-0.0882365830861209
-0.0840348410344008
-0.087824373841232
-0.0954059493390558
-0.0940821423491946
-0.0903848085657599
-0.0996102012748162
-0.0973044805685925
-0.100841809241281
-0.0924383251378409
-0.0924383251378409
-0.0924383251378409
-0.0924383251378409
-0.0924383251378409
-0.0869052464440165
-0.080807483046813
-0.0765529942122771
-0.0826507576094748
-0.0882365830861209
-0.0834206645541204
-0.0882365830861209
-0.0862383231808831
-0.0840348410344008
-0.0830102200715062
-0.0882365830861209
-0.0810119601663427
-0.0871097235634993
-0.0824965173886511
-0.0782965400992713
-0.0843943034964877
-0.0882365830861209
-0.0716305624740478
-0.0254053604965884
0.0145072869094024
0.0647817554801169
0.13575570874644
0.254606485372194
0.44847016780289
0.669153922583387
0.83091281484288
0.954416406751201
0.90541342977315
0.616605459808324
0.285213972814222
0.0915540615987561
-0.0470318159771873
-0.118897484000141
-0.130421812884946
-0.166450493095272
-0.176008955266367
-0.169911191869157
-0.146897437174957
-0.130554679873887
-0.0952798276634918
-0.0610645387083644
-0.0469840497454148
-0.0439568942309182
-0.0287342119221671
-0.020287275450387
-0.0141895120532303
-0.0171187036543072
-0.0210087102586002
-0.0210087102586002
-0.0192106528265263
-0.00941881065175218
-0.00979184217472603
-0.00932084673838991
-0.00420174205172004
-0.00420174205172004
-0.00420174205172004
-0.0066667227469027
-0.00420174205172004
-0.00420174205172004
-0.000250439371864
-0.00164558197359604
-0.000660138732651954
-0.00123588261280226
-0.00106983809343991
0
0
0.00041648389121471
0.00420174205172004
0.00838991504259822
0
0.00759765444270584
0.00868106159710778
0.0201960960674461
0.0168069682068802
0.0197863967066581
0.032940228620207
0.0268424652230503
0.0296762027948066
0.0357739661919624
0.0378156784654804
0.0395660088828945
0.0383710687542979
0.0420174205172004
0.0420174205172004
0.0522827680123187
0.0559974356827656
0.0551438790074117
0.0588243887240806
0.0546226466723605
0.0586377553118154
0.0669297064409959
0.0688257277864562
0.074923491183648
0.0780076681273299
0.0871190179780202
0.0882365830861209
0.0962600158346207
0.10541230816961
0.111510071566766
0.109286235828901
0.115302114257698
0.117648777448161
0.12474127850082
0.136936805295228
0.140728847986124
0.149992673295361
0.165119901574869
0.177315428369254
0.184876650275682
0.189101255802826
0.193280134379122
0.196685341184679
0.205282243230813
0.211380006627987
0.220666695412647
0.226010866111691
0.222692328741162
0.231569318165
0.237667081562209
0.243701038999762
0.245660866304861
0.251758629702018
0.256306265154922
0.249413966575427
0.239499296948042
0.239499296948042
0.22963435439913
0.220065578172991
0.209445042862106
0.192815413653024
0.172537432617046
0.159032922835819
0.132247479041862
0.120461651608367
0.102657945682139
0.0884865126377581
0.061211484578469
0.049264397092175
0.0345945951880867
0.0166384138034354
0.0105406504062493
-0.00347830717969617
-0.0184618445949981
-0.024559607992191
-0.0264556293376444
-0.0325533927348431
-0.0386511561320108
-0.0420174205172004
-0.0462191625689204
-0.0508627618713743
-0.0588243887240806
-0.0569122884336416
-0.0546226466723605
-0.0561250476020116
-0.0588243887240806
-0.0725223164481047
-0.0696539111023613
-0.0714296148792407
-0.0662715677722172
-0.0632994336230887
-0.0672278728275207
-0.0672278728275207
-0.082275216202464
-0.0725218066278319
-0.0741294658215384
-0.0798330989826808
-0.0765715830413216
-0.0798330989826808
-0.0751008301813878
-0.0714296148792407
-0.0671070454387357
-0.0630261307758006
-0.0591132606960835
-0.056229796045817
-0.0588243887240806
-0.0630261307758006
-0.0599326594176585
-0.0546226466723605
-0.0546226466723605
-0.0546226466723605
-0.0546226466723605
-0.0587927406543634
-0.0606887619998588
-0.0667865253970689
-0.0588243887240806
-0.0588243887240806
-0.0588243887240806
-0.0588243887240806
-0.0539873714789443
-0.0504209046206405
-0.0546226466723605
-0.0525010494942673
-0.0504209046206405
-0.0563345444896618
-0.0552164695613082
-0.0559248451288681
-0.0556261689220961
-0.0546226466723605
-0.057411167113557
-0.0593071884590005
-0.0606473096953911
-0.0587512883499544
-0.0565917683919821
-0.066554674854195
-0.061466708416967
-0.0622798324283508
-0.066078149829475
-0.0569346420888361
-0.0553626703096182
-0.0614604337067749
-0.0584940644476109
-0.0590753379161732
-0.0753932316780054
-0.0696129686181223
-0.0672278728275207
-0.0644330776761311
-0.0705308410733347
-0.0672278728275207
-0.0643346039425004
-0.0630261307758006
-0.0655097003000271
-0.0670500240095531
-0.0630261307758006
-0.0669960222847002
-0.0672278728275207
-0.063667680679409
-0.0684823442693667
-0.068279122091917
-0.068072644908573
-0.0769112017323122
-0.0751962842107022
-0.069098520813491
-0.0672786195464502
-0.073709962225999
-0.0676121988288442
-0.0672278728275207
-0.0604124394483036
-0.0610283806908521
-0.0672278728275207
-0.0714296148792407
-0.0688412969112062
-0.0717122121410506
-0.0756313569309607
-0.0715567169782206
-0.0672278728275207
-0.070892813419468
-0.0727888347649113
-0.0788865981621143
-0.0746818364060781
-0.0742751567496004
-0.0714296148792407
-0.0714296148792407
-0.0631562525791083
-0.0692540159762929
-0.0635852858907612
-0.0662590183517575
-0.0714296148792407
-0.0630261307758006
-0.0661288965484645
-0.0672278728275207
-0.0699209392393966
-0.0668405271219226
-0.0630261307758006
-0.0630261307758006
-0.0611524630854997
-0.0625940777598708
-0.0672278728275207
-0.0705878625024694
-0.0756313569309607
-0.0756313569309607
-0.0701404756633665
-0.0630261307758006
-0.0674627430746698
-0.0735605064718567
-0.0756313569309607
-0.0697084226474184
-0.0708450864048158
-0.0701181220082122
-0.0672278728275207
-0.0714296148792407
-0.0686318000235215
-0.0672278728275207
-0.0696159883224519
-0.0713472200905916
-0.0672278728275207
-0.0672278728275207
-0.0661635643225113
-0.0748943529980327
-0.0695459076526554
-0.0847964732049728
-0.0756313569309607
-0.0809220357253929
-0.0794934802916884
-0.0756313569309607
-0.0714996955490372
-0.0696036742035996
-0.0672278728275207
-0.0714296148792407
-0.0681173522189047
-0.0724361568333059
-0.0756313569309607
-0.0774218847107925
-0.0907294470248702
-0.0882365830861209
-0.0882365830861209
-0.0842573971626995
-0.0798330989826808
-0.0798330989826808
-0.0815073093216648
-0.0756313569309607
-0.0756313569309607
-0.0756313569309607
-0.0789443647131199
-0.0737700033595112
-0.0798330989826808
-0.0798330989826808
-0.0760063885177616
-0.0771523466896553
-0.0798330989826808
-0.0809443893805874
-0.0810275292910575
-0.0742359790277228
-0.0856389707035655
-0.0633180224521332
-0.069415785849288
-0.0755135492465037
-0.0798330989826808
-0.0798330989826808
-0.0798330989826808
-0.0798330989826808
-0.0714296148792407
-0.0714296148792407
-0.0677769884061381
-0.0763198887274183
-0.0838954248165714
-0.0798330989826808
-0.0837645578914423
-0.0849851066811183
-0.0798330989826808
-0.0744153180892533
-0.0683175546920541
-0.0680342123084344
-0.0741319757056393
-0.0836382009142809
-0.0775404375170701
-0.0798200397420071
-0.0779501368778581
-0.068073390030442
-0.0729028776232754
-0.0756313569309607
-0.0714296148792407
-0.0743891996079662
-0.0798330989826808
-0.0772832136147853
-0.0798330989826808
-0.0776929129755428
-0.0715951495783568
-0.0714296148792407
-0.0714296148792407
-0.0743105696454094
-0.0714296148792407
-0.0714296148792407
-0.0686225056090006
-0.064530296467692
-0.0732339470215086
-0.0672278728275207
-0.0672278728275207
-0.0672278728275207
-0.0630261307758006
-0.0665001633091134
-0.0725979267063298
-0.0725670237584359
-0.0721882273455428
-0.0756313569309607
-0.0714296148792407
-0.0736745493301915
-0.0797723127274061
-0.0714296148792407
-0.0714296148792407
-0.0742058212015858
-0.0681080578043819
-0.0682437091961076
-0.0685177571651757
-0.0630261307758006
-0.0680304474823431
-0.0710367395852167
-0.0630261307758006
-0.0630261307758006
-0.0630261307758006
-0.0630261307758006
-0.0659548125566308
-0.0598570491594324
-0.0596877496341776
-0.0657855130313808
-0.0676815343768239
-0.073779297774033
-0.0713856526907312
-0.0672278728275207
-0.0748998825864026
-0.0725707885845262
-0.0672278728275207
-0.0714296148792407
-0.0714296148792407
-0.0707187294275993
-0.0698347796245987
-0.0669266867366672
-0.0630261307758006
-0.0671193595575846
-0.0654403647520185
-0.0630261307758006
-0.0686739974498123
-0.0597523007156033
-0.0546226466723605
-0.0546226466723605
-0.0504209046206405
-0.0504209046206405
-0.0504209046206405
-0.0524656365984565
-0.0546226466723605
-0.0546226466723605
-0.0510915927098642
-0.051646237876869
-0.0608653558757772
-0.0688591406183938
-0.0756313569309607
-0.0672278728275207
-0.0649259169473882
-0.0588281535502315
-0.0649183872951451
-0.0596513170979584
-0.056105203830918
-0.0554458102200874
-0.0567683622678996
-0.0630261307758006
-0.0630261307758006
-0.0579077712109661
-0.0553830239009413
-0.0650783924058598
-0.0589806290086749
-0.0647659118366429
-0.0708636752338503
-0.0672278728275207
-0.0672278728275207
-0.0681482551668001
-0.0714296148792407
-0.0719402978577264
-0.0732246526069859
-0.0671268892098287
-0.0630261307758006
-0.0669191570844241
-0.0572370831216817
-0.0581059736201961
-0.0546226466723605
-0.0607699018464557
-0.0530868329107146
-0.0488830907951801
-0.0500626971006045
-0.0462191625689204
-0.0462191625689204
-0.0485763751159568
-0.0424786117187469
-0.039250508609378
-0.0386865690278206
-0.0440676820834198
-0.0504209046206405
-0.0414019890948787
-0.0202355090909349
0.0220373705662691
0.0567296943662025
0.115405137156365
0.202728396952239
0.341192741235108
0.558777298984704
0.752869773036685
0.905765990054546
0.987311928061078
0.843372114768013
0.486363691889793
0.208649174304154
0.0518066743734394
-0.0576794894094551
-0.0924383251378409
-0.106180724870544
-0.138657487706761
-0.141683388279149
-0.144900432211712
-0.129223343231844
-0.119366675456872
-0.070584568279626
-0.0423150770834373
-0.0216168473302706
-0.0131141443713671
-0.00281463892248409
-0.00328312447472019
-0.00420174205172004
-0.00420174205172004
0
0
0.000158005046873018
0.0083097948363959
0.00865517841735408
0.0100478111349852
0.0161455745321773
0.0180415958776324
0.0241393592748303
0.0252104523103202
0.0224895026548771
0.0205934813094355
0.0168069682068802
0.0210087102586002
0.0229102611924674
0.0290080245896232
0.0309040459351186
0.0336139364137603
0.0378156784654804
0.0378156784654804
0.037143225613978
0.0284769880198803
0.0346649503766218
0.0482621297844894
0.0421643663872741
0.0437664959925645
0.0535093562106236
0.0588243887240806
0.0555889912640081
0.0597540654778687
0.0630261307758006
0.0588243887240806
0.0588243887240806
0.0630261307758006
0.0650324301535083
0.0711301935506659
0.0756313569309607
0.0756313569309607
0.0810199996388144
0.0840348410344008
0.0916611238424943
0.0882365830861209
0.0920708232032832
0.0905001063661162
0.100757414388821
0.100347715027974
0.120042932351783
0.118962270383042
0.120127327204246
0.136524596050302
0.142859229758481
0.138657487706761
0.143698982071391
0.151477740337976
0.157575503735164
0.167680336299337
0.172271424120522
0.179466163732923
0.181966557323896
0.194439661611917
0.202565568221702
0.211441302703531
0.218490586689442
0.220858858413278
0.231220914879711
0.239499296948042
0.243353890656527
0.250555650100942
0.25134767539918
0.257445438796395
0.263543202193551
0.264709749258363
0.267335244884484
0.281196942545346
0.272883382882854
0.27713512653174
0.279710620560697
0.273612857163489
0.277314975413523
0.27073013763504
0.258534610840703
0.240573644989409
0.225740073148517
0.206125485851165
0.184542051352894
0.170283203751659
0.148030571407774
0.128600382157253
0.118952975968522
0.0971100429854613
0.085096639655368
0.073962911482
0.0563068965476648
0.0327648896863853
0.0228899076011433
0.0125755781493745
0.002290896703332
0.00380686669382563
-0.00300229197520204
-0.0118006514364768
-0.00949493073025408
-0.0185801620996596
-0.0245287050442951
-0.023586478870061
-0.0207366623533621
-0.018975037457554
-0.0291368914509348
-0.0318555665238735
-0.0257578031266658
-0.0294121943620403
-0.0294121943620403
-0.0303511655303512
-0.0307789438999734
-0.0252104523103202
-0.0300610386163588
-0.0334943639670254
-0.0294121943620403
-0.0294121943620403
-0.0310180887934837
-0.0336139364137603
-0.0240142572396657
-0.0210087102586002
-0.0252104523103202
-0.0252104523103202
-0.0252104523103202
-0.0252104523103202
-0.0335481303903463
-0.0378156784654804
-0.0378156784654804
-0.0279587753891
-0.0252104523103202
-0.0199649906464488
-0.0197467091645109
-0.0216427305099664
-0.0277404939071581
-0.0294121943620403
-0.0294121943620403
-0.0294121943620403
-0.0294121943620403
-0.0258055301413188
-0.0265113958247777
-0.0294121943620403
-0.0243192081566575
-0.0210087102586002
-0.0205271654657303
-0.0168069682068802
-0.0210805556906754
-0.0212747187551772
-0.0245347444528946
-0.0320557689969777
-0.0294121943620403
-0.0240619842543246
-0.0210087102586002
-0.0210087102586002
-0.0210087102586002
-0.0252104523103202
-0.0252104523103202
-0.0252104523103202
-0.0210087102586002
-0.0247201229231571
-0.0224144022168797
-0.0318138789178483
-0.0336139364137603
-0.0336139364137603
-0.0378156784654804
-0.0378156784654804
-0.0334373425378438
-0.0294121943620403
-0.0294121943620403
-0.0319510205531714
-0.0294121943620403
-0.0348671529135564
-0.0346664406202067
-0.0344574535527635
-0.0378156784654804
-0.0373818606872719
-0.0359437755374581
-0.0419933020997847
-0.0358955387025696
-0.0297977753054139
-0.0237000119081965
-0.0176022485110407
-0.0263111933516551
-0.0264154319752679
-0.0210087102586002
-0.0210087102586002
-0.0257731369498381
-0.0336139364137603
-0.0336139364137603
-0.0336139364137603
-0.0336139364137603
-0.0294121943620403
-0.0326661806511429
-0.0368674128826486
-0.0336139364137603
-0.0336139364137603
-0.0360485239812754
-0.0294121943620403
-0.0314370825687625
-0.0375348459659492
-0.0362004896195161
-0.0301027262223585
-0.034819425898895
-0.0285111459736416
-0.0218045003829904
-0.0279022637801461
-0.0294121943620403
-0.0316943064710773
-0.0336139364137603
-0.0275397816137903
-0.0252104523103202
-0.0279494809745773
-0.0285691870432667
-0.0294121943620403
-0.0264631589898886
-0.0300555090279273
-0.0310746004024015
-0.0254440676154184
-0.0315418310126063
-0.0336139364137603
-0.0326558665961664
-0.0252104523103202
-0.0281019564330618
-0.0252104523103202
-0.0327133978455747
-0.0322087542757086
-0.0368340000506985
-0.0294121943620403
-0.0294121943620403
-0.0294121943620403
-0.0332853768995702
-0.0304790127511497
-0.0390643850172845
-0.0415881126868547
-0.0294121943620403
-0.0420174205172004
-0.0367292516068701
-0.0339523001627027
-0.0355812933711022
-0.0294835299738878
-0.0317892506801692
-0.0219707802038809
-0.0280404250559247
-0.0336139364137603
-0.0388209654774956
-0.0420174205172004
-0.0462191625689204
-0.0437275535722211
-0.0337998247041996
-0.0378156784654804
-0.0378156784654804
-0.0403452102420887
-0.0378156784654804
-0.0378156784654804
-0.0378156784654804
-0.0386684900190046
-0.0392685876181929
-0.0336139364137603
-0.0336139364137603
-0.0293787815301036
-0.0252104523103202
-0.0252104523103202
-0.0278924595453957
-0.0286262084724005
-0.0325039009579046
-0.0294121943620403
-0.0266111245004613
-0.0310175789732559
-0.0297028310963219
-0.031427278334043
-0.0253295149368273
-0.0371678538516173
-0.0383444404527821
-0.0265777116684636
-0.0294121943620403
-0.0303697543593947
-0.0307603550709296
-0.0341617970503277
-0.0329279145014046
-0.0252104523103202
-0.0252104523103202
-0.0252104523103202
-0.0336139364137603
-0.0230524225959924
-0.0222234941582577
-0.0314320628005915
-0.0336139364137603
-0.0282117246450631
-0.0256058374883902
-0.0294121943620403
-0.0252247664929853
-0.0294121943620403
-0.0294121943620403
-0.0266824601123041
-0.0327802235095077
-0.0230858354279267
-0.0197652979935547
-0.02586306139073
-0.0294121943620403
-0.0165640584872593
-0.0168830882853341
-0.0331135674902619
-0.0343572150568921
-0.0257869413122753
-0.0280926620185408
-0.0284260059992982
-0.0261202852930268
-0.0266063400338493
-0.0210087102586002
-0.0234048652260023
-0.0294121943620403
-0.0274257387554252
-0.0174454984062149
-0.0241622227502526
-0.0259394167707784
-0.0252104523103202
-0.0190842958493668
-0.0175643257311323
-0.0183553313889142
-0.0171546263703434
-0.023252389767501
-0.0252104523103202
-0.0317799562656502
-0.0294121943620403
-0.0252104523103202
-0.0218901501775124
-0.0210087102586002
-0.0239193130306133
-0.0258153343760693
-0.0244103875395997
-0.0129955915650841
-0.0230999143090276
-0.0212232269144271
-0.0176457008793348
-0.009027700120054
-0.0122189000899597
-0.0178408835842811
-0.0185311801429705
-0.02245232499679
-0.0247580457030679
-0.0210087102586002
-0.0294976088549555
-0.0397544070574347
-0.0381826705798104
-0.0294121943620403
-0.0259871437854373
-0.0263297821806986
-0.0294121943620403
-0.0217183407681916
-0.0278161041653473
-0.0249105211615159
-0.0232046627528384
-0.0252104523103202
-0.0210087102586002
-0.0283732592164824
-0.0307887481347026
-0.0368865115319067
-0.028445339950165
-0.0337990795823809
-0.0336139364137603
-0.038520289206878
-0.041869964826901
-0.0337287243939484
-0.0333516927432745
-0.0403836428422273
-0.0413454774859239
-0.0383451855746651
-0.0325322940216986
-0.0336139364137603
-0.030903536114889
-0.0252104523103202
-0.0229097513722378
-0.0294021548257558
-0.0336139364137603
-0.0336139364137603
-0.0378156784654804
-0.0344383549034901
-0.0283405915063208
-0.0252104523103202
-0.0287502908671097
-0.0226525274699176
-0.0257148605786074
-0.0314657109341505
-0.0334564411871169
-0.0385403682795701
-0.011806651628034
0.0303104975647563
0.066545145138144
0.116073080059754
0.197691687054319
0.30889535667701
0.504974090251502
0.720991107735174
0.867447942602118
0.982139880506687
0.890353419326494
0.569837299313002
0.248075217930983
0.0836705156720156
-0.0260067914721559
-0.0778785659643555
-0.0851056987683587
-0.107904936806679
-0.109350786910328
-0.109245293344721
-0.105505997436598
-0.0880386159784751
-0.048122439047926
-0.0221388247871496
-0.00384553459555223
0.00543009501226349
0.0151154239809032
0.0252104523103202
0.0210094553804234
0.0168069682068802
0.0269012514144758
0.0150649125635249
0.0164485253852427
0.0283875733991602
0.0260818526928883
0.0349470378181461
0.0382773794872555
0.0467328652517285
0.05036890295966
0.0462191625689204
0.0500632069208332
0.0477574862146104
0.0538552496117643
0.0492922803357394
0.0492438081992573
0.0595433136481947
0.0604111845062527
0.0591336142874058
0.0630261307758006
0.0630261307758006
0.0666172258717484
0.0788127526661648
0.0784472507954958
0.0756313569309607
0.0817853966354768
0.0853644129142445
0.0761978063965698
0.0798330989826808
0.0841915911392229
0.0841310401855432
0.0877306845741947
0.0891521809588526
0.087573934469367
0.0882365830861209
0.0913659771603019
0.0958163938216544
0.0978777145646215
0.104629577285887
0.105461799946491
0.117640228155519
0.107344997352907
0.101247233955749
0.108024744555059
0.116833653372954
0.117648777448161
0.120625696063837
0.135126943564495
0.136090268451836
0.134717244203708
0.142972527495023
0.155168054289396
0.163161839032038
0.168069682068802
0.183351150569052
0.189078392327402
0.193280134379122
0.196104577536356
0.202721063384477
0.21250184638245
0.218708632869768
0.228899115228541
0.238897944406791
0.247902781051482
0.25139414747179
0.264709749258363
0.267791416317881
0.277314975413523
0.282658910810986
0.289920201568683
0.292182469906625
0.294121943620403
0.304377996700998
0.306727169775563
0.306727169775563
0.306727169775563
0.305693999519983
0.299596236122784
0.294121943620403
0.291602451380139
0.276887432345515
0.26469190555114
0.260508007206643
0.253707633131929
0.232912694407319
0.218821146267511
0.203714271579277
0.177152129035598
0.149984359304222
0.130254003603321
0.120785936476174
0.0923770290623376
0.0823646308231217
0.06407134063166
0.0572767706638697
0.0477353678610674
0.0271363569631926
0.0210087102586002
0.0153505295296103
0.00840348410344008
0.00388322207387213
-0.00221454132328363
-0.00831230472049968
-0.0102083260659348
-0.016306089463145
-0.0153955113585756
-0.0242998742057923
-0.0210087102586002
-0.0152457810858055
-0.021584454138732
-0.0227386870847157
-0.0208426657392554
-0.0168069682068802
-0.0168069682068802
-0.0210087102586002
-0.0245570981080891
-0.0294121943620403
-0.0262735058733402
-0.0218416780410296
-0.0252104523103202
-0.0218552471018734
-0.0270929045949124
-0.0210358483802839
-0.0275026039557032
-0.0290160640620949
-0.0279123033164883
-0.0252104523103202
-0.0283220026772791
-0.0252104523103202
-0.0258909446342963
-0.0268356806925919
-0.0212795032217855
-0.0273772666189431
-0.0294121943620403
-0.0210087102586002
-0.0246618465519334
-0.0210087102586002
-0.0274955841236887
-0.024272736084047
-0.0210087102586002
-0.0215367271240806
-0.0276344905212886
-0.0252104523103202
-0.0252104523103202
-0.0173897319190861
-0.0268150917997127
-0.0259115335272121
-0.0222036503872056
-0.0283014137843614
-0.0336139364137603
-0.0309326743005081
-0.0294121943620403
-0.027140631609575
-0.0210428682123582
-0.0228705736502784
-0.0289683370474876
-0.0336139364137603
-0.0269175656610113
-0.0252104523103202
-0.0281489383259019
-0.0329811711044469
-0.0268834077072533
-0.0212317762071266
-0.0273295396043143
-0.0253970857225827
-0.0227180981917996
-0.0252104523103202
-0.0252104523103202
-0.0284061622282056
-0.0336139364137603
-0.0308279258566657
-0.0289319045112213
-0.0252104523103202
-0.0252810428003464
-0.031378806197559
-0.0374765695947166
-0.0378156784654804
-0.0412686122856496
-0.0366684653515338
-0.0305707019543799
-0.0358264776732332
-0.0383185572731404
-0.0297400087544109
-0.0358377721515648
-0.0378156784654804
-0.0360015420884629
-0.0336139364137603
-0.0364228104462212
-0.0387169621554874
-0.0346086740692019
-0.0349249194645602
-0.0378156784654804
-0.035334618825353
-0.0294121943620403
-0.0294121943620403
-0.0373469576116376
-0.0394773393840202
-0.0420174205172004
-0.0378156784654804
-0.0346676955622576
-0.0327716742168081
-0.032150477904476
-0.0382482413016379
-0.0443460046988472
-0.0461962990935557
-0.0400985356963406
-0.0416305846317778
-0.0432007916487786
-0.0378156784654804
-0.0378156784654804
-0.0378156784654804
-0.0336139364137603
-0.0387855525816255
-0.0378156784654804
-0.0378156784654804
-0.0459599386027587
-0.0486544952582587
-0.0462191625689204
-0.0420174205172004
-0.0387646891701469
-0.0420174205172004
-0.0420174205172004
-0.0383529897454818
-0.0444507531426915
-0.0459639387305033
-0.0398393117301844
-0.0459370751273383
-0.0488069707167253
-0.0427092073195696
-0.0408131859740723
-0.0378156784654804
-0.0436064908818789
-0.0477303480928655
-0.0416325846956482
-0.0400965356324683
-0.0420174205172004
-0.0415579940778785
-0.0499863417206106
-0.0447577041235084
-0.0520898598898924
-0.0493691455360173
-0.0403236017087152
-0.0348980558614326
-0.0420174205172004
-0.0422497808802495
-0.0440907808604054
-0.0420174205172004
-0.0437361028649226
-0.0498338662621137
-0.0378156784654804
-0.0442256871302891
-0.0462191625689204
-0.0462191625689204
-0.0467087468342623
-0.0480352990098121
-0.0462990474734676
-0.0484449983705991
-0.0462191625689204
-0.0462191625689204
-0.0462191625689204
-0.0408609129887349
-0.0347631495915773
-0.0343607445814388
-0.0404585079785964
-0.0462191625689204
-0.0439860324165933
-0.046146572015022
-0.0485974738291003
-0.0424997104318898
-0.0406036890864491
-0.0378156784654804
-0.0378156784654804
-0.0349156250500373
-0.0342082691229357
-0.0427963865747771
-0.0416481538204237
-0.0377752458014713
-0.0420174205172004
-0.0420174205172004
-0.0384504438386679
-0.0365544224932124
-0.0304566590960149
-0.0386672350769555
-0.0420174205172004
-0.0378156784654804
-0.0401535570616499
-0.0419852626273129
-0.0416720369362454
-0.0423949619881022
-0.0378156784654804
-0.0378156784654804
-0.0442349815448136
-0.0534257064798828
-0.0497218234676228
-0.0462191625689204
-0.0546226466723605
-0.0546226466723605
-0.0546226466723605
-0.0504209046206405
-0.0540926297430078
-0.0588243887240806
-0.0588243887240806
-0.0578680836687635
-0.0574749730731595
-0.0588243887240806
-0.0539391346441068
-0.0546226466723605
-0.0566555743515835
-0.0588243887240806
-0.0604476170425166
-0.059506881111927
-0.0534091177147134
-0.0504209046206405
-0.0504209046206405
-0.0531207555629382
-0.0546226466723605
-0.0523324950908517
-0.0462347316936365
-0.0462191625689204
-0.0462191625689204
-0.0449589262370699
-0.0470541304152222
-0.0388767319646262
-0.0449744953618259
-0.0462191625689204
-0.0487665380527512
-0.0543809918947906
-0.0504209046206405
-0.0504209046206405
-0.0486929278583954
-0.0462191625689204
-0.0462191625689204
-0.0430048638219934
-0.0387242565061379
-0.0476266192894805
-0.044722526529332
-0.0360088364391115
-0.0462191625689204
-0.0442339619043563
-0.0381361985071987
-0.0420174205172004
-0.0420174205172004
-0.0462191625689204
-0.0462191625689204
-0.0462191625689204
-0.0462191625689204
-0.0416710172957881
-0.0378156784654804
-0.0336772325531359
-0.0414811288776024
-0.0424904160173707
-0.0392387043107544
-0.0453364677079573
-0.0452058360844335
-0.0420174205172004
-0.0462191625689204
-0.0462191625689204
-0.0420174205172004
-0.0399274714088221
-0.0378156784654804
-0.0420174205172004
-0.0420174205172004
-0.0462191625689204
-0.0398860191043878
-0.0386765294914746
-0.0392605481457211
-0.0294121943620403
-0.0341065403834248
-0.033655388718167
-0.0416906257652871
-0.0462191625689204
-0.0446913882798041
-0.0420174205172004
-0.0473372374972479
-0.0504209046206405
-0.0420174205172004
-0.0420174205172004
-0.0342112888272672
-0.0398227229650113
-0.0419063973631634
-0.0486359064292384
-0.0425381430320303
-0.0462191625689204
-0.0462191625689204
-0.0546226466723605
-0.0488994050417553
-0.0420174205172004
-0.0469212634262162
-0.0544764459241081
-0.0524631267143862
-0.0624991335507272
-0.0613936080428784
-0.0588243887240806
-0.0558454700445303
-0.0557055440064732
-0.0546226466723605
-0.0519135013155401
-0.0542192220217666
-0.0458220126285775
-0.0378219531756736
-0.0378156784654804
-0.0416014464462125
-0.0405373732427448
-0.0378156784654804
-0.0378156784654804
-0.0378156784654804
-0.03847632701836
-0.0369040807204969
-0.0301650419383183
-0.0441643910547612
-0.0502621544519461
-0.0427446202153921
-0.0123826308098228
0.0179155134190529
0.0648717191379878
0.136148858558585
0.222921512532418
0.383337616803141
0.59675933570543
0.775483907122715
0.913852248339468
0.957997187792169
0.735272387424393
0.366789637261513
0.142894015182748
0.00887663647153428
-0.0634167707044128
-0.0840348410344008
-0.094572510953451
-0.124403934392279
-0.126106263276456
-0.132613726034458
-0.115301839739031
-0.0852767238388574
-0.0547879068528421
-0.0242990898670012
-0.00548484185895507
0
0
0
0
0
0.00337908832420922
0.0155746151185959
0.00840348410344008
0.0115793502502291
0.0117350807146431
0.00840348410344008
0.0177278603663323
0.0228539848851071
0.0209579635396707
0.0187537362713062
0.0286942890783275
0.0294121943620403
0.0294121943620403
0.0324865670709102
0.0294121943620403
0.0286945243799771
0.0304378349653143
0.0336139364137603
0.0358179283804722
0.0419156917776862
0.0378156784654804
0.0415059924168915
0.0448345693237845
0.0387368059265821
0.0410425266328515
0.0435575089251312
0.0492905155735204
0.0420174205172004
0.0502654094578675
0.0482706790771583
0.0543684424743446
0.0546226466723605
0.0546226466723605
0.0558547644590531
0.0619525278562107
0.0638485492016562
0.0699463125988619
0.0756313569309607
0.077940097341515
0.0798300792783512
0.0756313569309607
0.0870165441167257
0.0882365830861209
0.0950073091550451
0.0913586828096496
0.0912122467597883
0.100841809241281
0.100841809241281
0.105824282112847
0.121961307352321
0.130104547849148
0.134455745655041
0.14174091952856
0.145724105579705
0.142859229758481
0.1489153055496
0.158287644128825
0.169104617086619
0.176473166172242
0.180890444520186
0.19108218182101
0.197179945218167
0.209073540799923
0.21777895611598
0.222692328741162
0.225772740858632
0.240273988359287
0.243701038999762
0.248267773101938
0.254365536499096
0.260463299896311
0.260508007206643
0.268002677967833
0.268911491310083
0.268911491310083
0.273113233361803
0.267257360043787
0.267667059404596
0.252953295312003
0.252104523103202
0.243670371353521
0.227288436330547
0.219294651587907
0.196314545027228
0.172605748524743
0.154312458333146
0.136019168141642
0.117725877950033
0.0910291036551053
0.0774673371429449
0.0585241830568188
0.0378156784654804
0.0262594269923324
0.0225550733767601
0.0148832989195334
-0.00113666375737288
-0.00723442715453051
-0.0217356746551842
-0.0252104523103202
-0.0300467244336342
-0.0378156784654804
-0.0337063707387517
-0.0336139364137603
-0.0410131531456283
-0.0378156784654804
-0.0411055874706215
-0.0514050929195084
-0.0546226466723605
-0.0504209046206405
-0.0528914149041941
-0.0544578570950648
-0.0462992827751228
-0.0380605882489735
-0.0352650479757263
-0.0449099442803601
-0.0462191625689204
-0.0430817290222695
-0.0403108169866158
-0.0504209046206405
-0.0508429181002798
-0.0476685421971354
-0.0378156784654804
-0.0397240139297684
-0.0420174205172004
-0.0420174205172004
-0.0386227630682173
-0.0399935519509046
-0.052189078745301
-0.0539434092904354
-0.0504209046206405
-0.0504209046206405
-0.0482553452540378
-0.0462191625689204
-0.0462191625689204
-0.0462191625689204
-0.0406712598721852
-0.0410578604559737
-0.0420174205172004
-0.0391849378874941
-0.0357209841074707
-0.0528436878895579
-0.0462191625689204
-0.0442060786607901
-0.0420174205172004
-0.0462191625689204
-0.0462191625689204
-0.0480335342475315
-0.0389277139852083
-0.0428014063429679
-0.0462191625689204
-0.0378156784654804
-0.0423562940863127
-0.0462191625689204
-0.0480797710185496
-0.0504209046206405
-0.0447682534800802
-0.0420174205172004
-0.0462191625689204
-0.0462191625689204
-0.0533596259378318
-0.0462191625689204
-0.0546226466723605
-0.0546226466723605
-0.058636500369769
-0.0479272955600689
-0.0504209046206405
-0.0504209046206405
-0.0472264496448061
-0.0513096388902014
-0.0462683798272239
-0.0429754903347365
-0.048045848366382
-0.0462884981168956
-0.0484555477271709
-0.0462191625689204
-0.0477748201016031
-0.0538725834987588
-0.0588243887240806
-0.0527404296894217
-0.0518934222428539
-0.0588243887240806
-0.0588243887240806
-0.0588243887240806
-0.0629429908653302
-0.0570115072891141
-0.0546226466723605
-0.0602275707982619
-0.0597269273561385
-0.0588243887240806
-0.0617138927829498
-0.0582406053714751
-0.0496630372762077
-0.0549708146559899
-0.0609560254385189
-0.0588243887240806
-0.0604847947005694
-0.0594697034538418
-0.0558733532880547
-0.0588243887240806
-0.0588243887240806
-0.0615614173244672
-0.062594822881694
-0.0611517179636783
-0.0588243887240806
-0.0569067588452698
-0.0546226466723605
-0.0576385077084042
-0.0664300826392582
-0.0619278996185658
-0.0588243887240806
-0.0546226466723605
-0.0623763060981157
-0.0627472983401417
-0.0631740962863317
-0.0672278728275207
-0.0612609763554698
-0.0588243887240806
-0.0588243887240806
-0.0588243887240806
-0.0620803750770555
-0.0559826116798534
-0.0556947593482614
-0.0630261307758006
-0.0672278728275207
-0.0652054945048676
-0.0630261307758006
-0.0604370676859448
-0.0630261307758006
-0.0618231511747234
-0.0557253877775677
-0.0588243887240806
-0.0615136903098046
-0.0710460339997394
-0.0649482706025836
-0.0630261307758006
-0.0588243887240806
-0.0588243887240806
-0.0588243887240806
-0.0588243887240806
-0.0619756266332284
-0.0588243887240806
-0.0588243887240806
-0.0588243887240806
-0.0548537520933606
-0.0588243887240806
-0.0588243887240806
-0.0571069613184093
-0.0546226466723605
-0.0504209046206405
-0.0504209046206405
-0.0429154492012841
-0.051807262628057
-0.0494442459740587
-0.0420174205172004
-0.0462977925314166
-0.0523955559286328
-0.0584933193257886
-0.0546226466723605
-0.0546226466723605
-0.0569331518451934
-0.0599748568439485
-0.0511664578462699
-0.0572642212434257
-0.0588243887240806
-0.0565925135138043
-0.0546226466723605
-0.058266998371339
-0.0593079335808228
-0.0462191625689204
-0.0495276604031054
-0.0504209046206405
-0.0533197030940326
-0.0510139823877649
-0.0571117457849579
-0.0628427523694632
-0.0588243887240806
-0.0588243887240806
-0.0504209046206405
-0.053986626357122
-0.0546226466723605
-0.0577786690480551
-0.0537723450029364
-0.0531672276355461
-0.05506324898099
-0.0588243887240806
-0.0588243887240806
-0.0568974644307508
-0.0469767553948259
-0.0519381295531851
-0.0477961541164
-0.0431249460889579
-0.0432156156516864
-0.0434130729391377
-0.0530147521770449
-0.0546226466723605
-0.0524384984767121
-0.0504209046206405
-0.0546226466723605
-0.0509521764920348
-0.0490561551465796
-0.0429583917493817
-0.0429724706304665
-0.0433680911101706
-0.0414720697647271
-0.0378156784654804
-0.042153071908879
-0.0482508353060944
-0.0504209046206405
-0.0530006732959736
-0.0469029098988178
-0.0504209046206405
-0.044204313898573
-0.0386182531202914
-0.0420174205172004
-0.0420174205172004
-0.0420174205172004
-0.0420174205172004
-0.0420174205172004
-0.0420174205172004
-0.0420174205172004
-0.0420174205172004
-0.0388754770225753
-0.0449732404197749
-0.0546226466723605
-0.0495304055888009
-0.0462191625689204
-0.0462191625689204
-0.0421867200424684
-0.0420174205172004
-0.0383946773515373
-0.0378156784654804
-0.0410287222703565
-0.0411100974185938
-0.0322089895772984
-0.0262056997859439
-0.0384012265803608
-0.0378156784654804
-0.0397996241879954
-0.0458973875851512
-0.0362414321037542
-0.0370842041209222
-0.0408528735162613
-0.0347551101191055
-0.0351236316940608
-0.0393665515316144
-0.0378156784654804
-0.0310921695910835
-0.0334848342509109
-0.0401859502531903
-0.0266332036369785
-0.0294121943620403
-0.0294121943620403
-0.0357915353806083
-0.0294121943620403
-0.0294121943620403
-0.0319105878891605
-0.0334212635929002
-0.0315008885283677
-0.0296292209019691
-0.0235314575047876
-0.017433694107596
-0.01807626365162
-0.0241740270488156
-0.0294121943620403
-0.0321678117914686
-0.028962297638888
-0.0275563703789616
-0.0294523917243979
-0.0355501551216128
-0.0339834384121903
-0.0393421978125458
-0.0317497984396914
-0.0347307564000369
-0.0378156784654804
-0.0398960586407319
-0.0268090523911132
-0.0297096156267409
-0.0336139364137603
-0.0336139364137603
-0.0336139364137603
-0.0336139364137603
-0.0336139364137603
-0.036884001647818
-0.0336139364137603
-0.0307535705404878
-0.0299668395290364
-0.0336139364137603
-0.0336139364137603
-0.035654903565457
-0.0456896554597451
-0.0403861527262908
-0.0342883893291369
-0.0372786417041226
-0.0462191625689204
-0.0370038093961466
-0.0336139364137603
-0.0294121943620403
-0.0294121943620403
-0.0252179819625625
-0.0289874356967073
-0.0373984494524434
-0.0237316599779156
-0.0243835239364904
-0.0241413593387026
-0.0180435959415028
-0.0168069682068802
-0.0168069682068802
-0.0215080987586837
-0.0315579099575501
-0.0336139364137603
-0.000453112512154472
0.0385991936879953
0.0776156163889453
0.144691013758108
0.232621194900273
0.377077573713201
0.57976173395753
0.76176441008282
0.905124479367562
0.965053217091531
0.790133982907393
0.418697844289066
0.179887236006354
0.0503004694009272
-0.0349003696606772
-0.0622619887211295
-0.0694650423245153
-0.096285624495675
-0.0946887891771626
-0.10493303795919
-0.0850752664237098
-0.0569474268108434
-0.0278896751427773
-0.00682570821719947
0.0146479580690739
0.026843484863472
0.0288005277658704
0.0302258281936064
0.0334119691783794
0.033608171523737
0.0458036983181083
0.0403291312971449
0.0413999890310073
0.0407388306579396
0.0409902896702184
0.0462191625689204
0.0462191625689204
0.0499617134829654
0.0462191625689204
0.0504703963975209
0.0546226466723605
0.0507811122045478
0.0546226466723605
0.0546226466723605
0.0641522451765998
0.0642057370812838
0.0630261307758006
0.0630261307758006
0.0630261307758006
0.0630261307758006
0.0630261307758006
0.0666122061035484
0.0714296148792407
0.0742480186278561
0.0714296148792407
0.0756313569309607
0.0727616966431844
0.0773231756755121
0.0882365830861209
0.0882365830861209
0.0882365830861209
0.0842903001744676
0.0915177074969781
0.0931034836386947
0.0906983087754078
0.0966400671895609
0.100020645757428
0.0993572520188512
0.105043551293001
0.107351036761504
0.113447035396441
0.115344821504155
0.117648777448161
0.121850519499881
0.125234627592294
0.130254003603321
0.13322841233494
0.143527917783833
0.149625681181027
0.147060971810201
0.153526001840294
0.163717229320857
0.171560303367277
0.18011449816695
0.189078392327402
0.182615127059562
0.192782040038003
0.205885360534282
0.20640157310114
0.214911570410693
0.222905355153288
0.231095812844602
0.234994368741597
0.241092132138812
0.243701038999762
0.253287658933183
0.259385422330341
0.27045836424847
0.277314975413523
0.277678712521929
0.283776475919083
0.2898742393163
0.292271884527347
0.289920201568683
0.292681583888136
0.289920201568683
0.289920201568683
0.289920201568683
0.279653834433165
0.26639450895392
0.264075964308652
0.245782674117089
0.231492688266365
0.215095419420289
0.195712682665803
0.175523371128835
0.154316223159299
0.136022932967789
0.117729642776186
0.0999048381368888
0.0853448044447807
0.0629085583929978
0.0507130315985648
0.0308158470395936
0.0225538184347092
0.0148870637456806
0.00306633323639623
-0.00303143016075767
-0.00912919355797501
-0.0152269569551289
-0.0174389883943722
-0.0274224837495039
-0.037628299931392
-0.0360133463870856
-0.0373122898376452
-0.0364230457478547
-0.0303252823506572
-0.0387986118222973
-0.0362595111126095
-0.0305586623541202
-0.0378156784654804
-0.0379792131007233
-0.0420174205172004
-0.0380618431910263
-0.0420174205172004
-0.0384715425518115
-0.0378156784654804
-0.0440880356746804
-0.0411869626188231
-0.0378156784654804
-0.0336139364137603
-0.0359307162967826
-0.0336139364137603
-0.0355210169359974
-0.0378156784654804
-0.0363182973040284
-0.0336139364137603
-0.0431051023178597
-0.0432354594227811
-0.0384936609053545
-0.0394434167318521
-0.0378156784654804
-0.0378156784654804
-0.0378156784654804
-0.0420174205172004
-0.0383667941079691
-0.0406725148142362
-0.0280928973201532
-0.0261456586524935
-0.0294121943620403
-0.0341394433951388
-0.0402372067923487
-0.0376998708448966
-0.0336139364137603
-0.0257982357907262
-0.0242129694691813
-0.0294121943620403
-0.0252104523103202
-0.0282989039002595
-0.0328312055300438
-0.0320909465911907
-0.0336139364137603
-0.0358829892821255
-0.0378156784654804
-0.0336139364137603
-0.0373693112668276
-0.0378156784654804
-0.041161353957753
-0.0388556332514827
-0.0420174205172004
-0.0432779313676272
-0.0504209046206405
-0.0459986065044959
-0.0441339979270926
-0.0462191625689204
-0.0538346607188354
-0.0516185899349395
-0.0475163412572269
-0.0472277045868551
-0.0429048998447122
-0.0434356618959277
-0.0466969425356375
-0.0504209046206405
-0.0504209046206405
-0.0504209046206405
-0.0504209046206405
-0.0504209046206405
-0.0469704806845731
-0.0515656078504814
-0.0546226466723605
-0.0546226466723605
-0.0546226466723605
-0.0458938580606498
-0.0420174205172004
-0.0420174205172004
-0.0462191625689204
-0.0462191625689204
-0.0518228317527709
-0.0546226466723605
-0.0556148744437021
-0.0588243887240806
-0.0414348921066395
-0.0402942282215303
-0.0420174205172004
-0.0420174205172004
-0.0459822922578991
-0.0445600115344445
-0.0384622481372906
-0.0420174205172004
-0.0451628935363213
-0.0462191625689204
-0.0489549362272562
-0.0462191625689204
-0.0508713111640141
-0.0462191625689204
-0.0481355375056784
-0.0504209046206405
-0.0489142290446714
-0.0462191625689204
-0.0462191625689204
-0.0492121601295845
-0.0462191625689204
-0.0462191625689204
-0.0467743175561327
-0.0546226466723605
-0.0505530264878195
-0.0563865461506404
-0.0588243887240806
-0.0532684465548716
-0.0504209046206405
-0.0546226466723605
-0.0546226466723605
-0.0546226466723605
-0.0570534694137497
-0.0626508246704751
-0.0504209046206405
-0.0543380493466784
-0.0478305865887356
-0.0574357953511385
-0.0588243887240806
-0.0557266427196205
-0.0546226466723605
-0.0573106933160355
-0.0584420627866283
-0.0569009939552466
-0.0588243887240806
-0.0588243887240806
-0.0588243887240806
-0.0602833372853926
-0.0630261307758006
-0.0577751395235574
-0.0575679172183631
-0.0636656806155349
-0.0697634440127285
-0.0672278728275207
-0.0651020010031075
-0.0670480239456809
-0.0637955279002763
-0.0588243887240806
-0.0630261307758006
-0.0630261307758006
-0.0672278728275207
-0.0672278728275207
-0.0677149472087624
-0.0714296148792407
-0.0671504978070736
-0.0630261307758006
-0.0668955484871777
-0.0698659178740863
-0.0672278728275207
-0.0672278728275207
-0.0641778538377176
-0.0672278728275207
-0.0645875531985065
-0.0636953286213761
-0.0714296148792407
-0.0673029732655191
-0.0714296148792407
-0.0602787881204602
-0.0658166512808694
-0.0663333736679365
-0.0756313569309607
-0.0727338133996196
-0.0636179536008741
-0.0722035611686135
-0.075267110002384
-0.0693060176372761
-0.0714296148792407
-0.0756313569309607
-0.0685024233420995
-0.0659691267393546
-0.0598713633421552
-0.0638751775032233
-0.0672278728275207
-0.0672278728275207
-0.064892504115453
-0.0629964827699557
-0.0568987193728018
-0.0584443373690769
-0.0672278728275207
-0.0638158814915409
-0.0661216021978159
-0.0630261307758006
-0.0679244440964365
-0.0714296148792407
-0.0627392588676699
-0.0588243887240806
-0.0588243887240806
-0.0563958405651651
-0.0624936039623535
-0.0630261307758006
-0.0662856466532884
-0.0672278728275207
-0.0672278728275207
-0.0666837770170964
-0.0630261307758006
-0.0676310621764091
-0.0798330989826808
-0.075906659842122
-0.0730503333135767
-0.0791480967107343
-0.0756313569309607
-0.0756313569309607
-0.0722309345920026
-0.0756313569309607
-0.0668362524755476
-0.0676014141706144
-0.0797969409650486
-0.0733075572158624
-0.0756313569309607
-0.0783648560068479
-0.0722670926096425
-0.0756313569309607
-0.0726767919704372
-0.0678767170817795
-0.0765193460786984
-0.0711904699857707
-0.0650927065885828
-0.0710885059446028
-0.0739058900528176
-0.0678081266556285
-0.0727453823965891
-0.0756313569309607
-0.0714296148792407
-0.0714296148792407
-0.0714296148792407
-0.0714296148792407
-0.0756313569309607
-0.0756313569309607
-0.0833887811827567
-0.0798330989826808
-0.0833021117477936
-0.073304772813188
-0.0641685594231967
-0.0687350582237156
-0.0756313569309607
-0.0756313569309607
-0.071151527565461
-0.0672278728275207
-0.0617372268616376
-0.0471701733374649
-0.0518414205818126
-0.0579391839790174
-0.0640369473761876
-0.0701347107733828
-0.0702273804000446
-0.0630261307758006
-0.0624518771393731
-0.0525083438449132
-0.0625895678118412
-0.0647038706392823
-0.074375395245431
-0.0798330989826808
-0.0766690371345145
-0.0764896980729043
-0.0798330989826808
-0.067676514608622
-0.0714296148792407
-0.0715074997199722
-0.0798330989826808
-0.0721711287601989
-0.0714296148792407
-0.0714296148792407
-0.0630261307758006
-0.069049303555127
-0.0798330989826808
-0.0772312119537658
-0.0681163717954753
-0.0842174743189213
-0.0882365830861209
-0.0804698644197497
-0.0793098665837583
-0.0798330989826808
-0.0831019092746894
-0.0840348410344008
-0.081175730103181
-0.0756313569309607
-0.0756313569309607
-0.0798330989826808
-0.0798330989826808
-0.0758973654275975
-0.0714296148792407
-0.0714296148792407
-0.0702093013911727
-0.0609952031605096
-0.0604456169786462
-0.0726411437729539
-0.0798330989826808
-0.0775361628707493
-0.0714383994735321
-0.0733168516303833
-0.079414615027591
-0.0855123784247545
-0.0747423481427639
-0.031408650288069
0.00221407072008121
0.0505732232113362
0.129844147374857
0.242253855520064
0.425857994562084
0.625100986068586
0.779406110834002
0.90150075577875
0.862750733743942
0.550164239559342
0.220982195686535
0.0445834632638639
-0.0517814578820416
-0.106848432472484
-0.118032632846132
-0.144415671629966
-0.155464455913641
-0.167032511685474
-0.158358195401987
-0.136996297391427
-0.100370264767968
-0.0676151793161305
-0.0451030877045212
-0.040957857261701
-0.0226645670702281
-0.0209521986496437
-0.0233709425738384
-0.0135376480946552
-0.0140350365308568
-0.0168069682068802
-0.0136253371700679
-0.0197231005672633
-0.0246000406562013
-0.0185022772590081
-0.0126052261551601
-0.0126052261551601
-0.0126052261551601
-0.0142922604331666
-0.0132239125834041
-0.0126052261551601
-0.00308515736709871
-0.00173527111283403
-0.00287617029963612
0.00748761171219547
0
0
0
0
0.00153455881953532
0.00420174205172004
0.0126052261551601
0.0186469877635356
0.0210087102586002
0.0210087102586002
0.0210087102586002
0.0210087102586002
0.0169112068304944
0.0168069682068802
0.0168069682068802
0.0237728769807114
0.0326902990685698
0.0336139364137603
0.0364823417595009
0.0425801051566666
0.0486778685538759
0.0418644352385252
0.0439626983379801
0.0504209046206405
0.0504209046206405
0.0504209046206405
0.0588243887240806
0.0588243887240806
0.0672278728275207
0.0726597326020031
0.0802433081636955
0.0863410715608531
0.0924383251378409
0.0924383251378409
0.100023430160151
0.106530383097879
0.109245293344721
0.1113995582329
0.123595085027292
0.127387127718202
0.13958265451259
0.147318705532717
0.155570223997881
0.155616421551915
0.166642420794117
0.183753320277557
0.186211006622076
0.195539147711139
0.205885360534282
0.208706038865366
0.214288844637722
0.221521781548606
0.235402813160336
0.241500576557548
0.243701038999762
0.246311200802762
0.243701038999762
0.249084661939414
0.255182425336572
0.25553408362778
0.252104523103202
0.243338556833408
0.234982289924459
0.226941287987314
0.218994720439149
0.210544019141229
0.197366304111909
0.182408140056004
0.164981465780516
0.149613602363826
0.128394885397391
0.107585867791709
0.0915982983064225
0.071419300824324
0.0552217246311634
0.0369284344396294
0.0222274942860465
0.00874533815996202
0
-0.0101573440453161
-0.0251258221561486
-0.0340811670239036
-0.0401789304211143
-0.0420749517665527
-0.0481727151637692
-0.0542704785609231
-0.0519647578547004
-0.0580625212519032
-0.0599585425973516
-0.0660563059945092
-0.0707051603667586
-0.0672278728275207
-0.0714296148792407
-0.0692188383821061
-0.0713346706701474
-0.0678274606064982
-0.0704203277394791
-0.0700382371036839
-0.0639404737064796
-0.0598060671388624
-0.0716592300565962
-0.0762033359849516
-0.0798330989826808
-0.0757936366241569
-0.0798330989826808
-0.0758787765985558
-0.0730782165571429
-0.0791759799543006
-0.077355294348454
-0.0714296148792407
-0.0680570757838451
-0.0741548391810028
-0.0710101112837014
-0.0649123478865475
-0.0672278728275207
-0.0672278728275207
-0.0710297197531966
-0.0714296148792407
-0.0680374673143595
-0.0630261307758006
-0.0630261307758006
-0.0552993741701856
-0.0639698864106716
-0.0630261307758006
-0.0651891802583014
-0.0672278728275207
-0.0647794808975104
-0.0708772442947029
-0.0658842220666055
-0.0662658028821939
-0.0611582279755598
-0.0517926739267561
-0.0588243887240806
-0.0588243887240806
-0.0631406834543353
-0.069238446851551
-0.0714296148792407
-0.0714296148792407
-0.0714296148792407
-0.0696102234324259
-0.0725441602830705
-0.0645890826591355
