-0.104177450416632
-0.104177450416632
-0.107938244456856
-0.112511646449962
-0.112511646449962
-0.108344548433297
-0.108344548433297
-0.10900603352391
-0.109969764339296
-0.104432631530693
-0.108344548433297
-0.100312598124739
-0.101739626557634
-0.100567779238911
-0.104177450416632
-0.107380817617912
-0.107427882228629
-0.101380387191911
-0.104687812644859
-0.105953789185017
-0.1042815086683
-0.106360093161576
-0.100312598124747
-0.100010352399966
-0.100010352399966
-0.104177450416632
-0.104177450416632
-0.104177450416632
-0.104177450416632
-0.104536689782354
-0.106104912047457
-0.100057417010684
-0.100010352399966
-0.0962966229705779
-0.0958432543833012
-0.0958432543833012
-0.0968639788396372
-0.100010352399966
-0.0993959319201719
-0.0958432543833012
-0.100010352399966
-0.100010352399966
-0.100010352399966
-0.101692561946916
-0.100614843849629
-0.100010352399966
-0.100010352399966
-0.100010352399966
-0.100010352399966
-0.100473650017357
-0.101833755779187
-0.100010352399966
-0.10194774306097
-0.104177450416632
-0.100010352399966
-0.100010352399966
-0.101135135107971
-0.104177450416632
-0.100728831131412
-0.104177450416632
-0.103865275661627
-0.100010352399966
-0.100010352399966
-0.0976295221818511
-0.100010352399966
-0.100010352399966
-0.0967499915578545
-0.0968169142288286
-0.100010352399966
-0.100010352399966
-0.102458105289079
-0.104177450416632
-0.106218899329304
-0.108344548433297
-0.106709403497184
-0.104177450416632
-0.102948609456959
-0.103119590379692
-0.103354913433518
-0.102713286403133
-0.107928315426624
-0.104177450416632
-0.108354477463411
-0.110621320399795
-0.108344548433297
-0.104177450416632
-0.107541869510412
-0.108344548433297
-0.108344548433297
-0.104848864537359
-0.105792737292516
-0.0961083645274774
-0.104301366728647
-0.0962668358801162
-0.0975824575710826
-0.0963907521921319
-0.0971761535946421
-0.100010352399966
-0.0958432543833012
-0.0958432543833012
-0.0958432543833012
-0.098243942661696
-0.0958432543833012
-0.0958432543833012
-0.0958432543833012
-0.0958432543833012
-0.0958432543833012
-0.0958432543833012
-0.0958432543833012
-0.0958432543833012
-0.0984991237757503
-0.100010352399966
-0.100010352399966
-0.100010352399966
-0.100010352399966
-0.100010352399966
-0.0958432543833012
-0.0958432543833012
-0.0927068098530863
-0.0987543048898046
-0.0993860028900573
-0.0958432543833012
-0.0958432543833012
-0.0958432543833012
-0.0958432543833012
-0.0983182138229027
-0.0958432543833012
-0.0958432543833012
-0.0958432543833012
-0.100010352399966
-0.100010352399966
-0.100010352399966
-0.100010352399966
-0.0959101770543661
-0.100010352399966
-0.100010352399966
-0.0984693366854072
-0.0958432543833012
-0.100010352399966
-0.100010352399966
-0.100010352399966
-0.0974015476182793
-0.0955211505981819
-0.0938786571718083
-0.0999261522085268
-0.0982141555713018
-0.0958432543833012
-0.100010352399966
-0.100010352399966
-0.094859665507659
-0.0916761563666359
-0.0952659694841275
-0.089218474447409
-0.0876800392725903
-0.0916761563666359
-0.0956079313294755
-0.0941981804170737
-0.0916761563666359
-0.0958432543833012
-0.0958432543833012
-0.0916761563666359
-0.0916761563666359
-0.0921023184034236
-0.0958432543833012
-0.0916761563666359
-0.0916761563666359
-0.0916761563666359
-0.089003009453812
-0.0916761563666359
-0.0916761563666359
-0.0887081122192158
-0.0798562054674821
-0.0833419603333054
-0.0791748623166401
-0.0813302985110948
-0.0833419603333054
-0.080923994534536
-0.0833419603333054
-0.0791748623166401
-0.0791748623166401
-0.0801113865815366
-0.0833419603333054
-0.0791748623166401
-0.0815854796251492
-0.0832180440214083
-0.0771705489846898
-0.0788924746520887
-0.0791748623166401
-0.0756964559410772
-0.0773911750578765
-0.0802698579342142
-0.0783894609141299
-0.0750077642999748
-0.0791748623166401
-0.0769153678705713
-0.0750077642999748
-0.0773216718470761
-0.0787413517895921
-0.0791748623166401
-0.082502145829817
-0.0791748623166401
-0.0820958418532581
-0.0791748623166401
-0.0791748623166401
-0.0791748623166401
-0.0791748623166401
-0.0791748623166401
-0.0791748623166401
-0.0791748623166401
-0.0804706259472593
-0.080165799682633
-0.0842314199874839
-0.0875090583499706
-0.0833419603333054
-0.0809784076356326
-0.0793285657189984
-0.0875090583499706
-0.0875090583499706
-0.0875090583499706
-0.0840777165851464
-0.0833419603333054
-0.0863669981215915
-0.0875090583499706
-0.0875090583499706
-0.0875090583499706
-0.0852966285146839
-0.0833419603333054
-0.0875090583499706
-0.0875090583499706
-0.0833419603333054
-0.0800617414309649
-0.0781813444108831
-0.077881679225875
-0.0785876483873522
-0.0750077642999748
-0.0748268543472407
-0.0729019732562103
-0.0750077642999748
-0.0750077642999748
-0.0750077642999748
-0.0791748623166401
-0.0760457662766856
-0.0750077642999748
-0.0750077642999748
-0.0745716732330727
-0.0731571543702646
-0.0791450752262971
-0.0730975801895786
-0.0746312474138668
-0.0750077642999748
-0.0750077642999748
-0.0750077642999748
-0.0750077642999748
-0.0750077642999748
-0.0750077642999748
-0.0752927325043725
-0.0791748623166401
-0.0791748623166401
-0.0690816050352993
-0.0703130265347075
-0.0639680537235046
-0.0551062179416909
-0.0532258209216379
-0.0528320265150473
-0.0583393722333138
-0.0559188258946903
-0.062506470249979
-0.0584779855258498
-0.0619615529811051
-0.0583393722333138
-0.0583393722333138
-0.0553739086257137
-0.0645034350917257
-0.0758030947325994
-0.0764991348639621
-0.0753967907560406
-0.0791748623166401
-0.0750250418203495
-0.0689775467836312
-0.0591865352271807
-0.0597961877564747
-0.062506470249979
-0.0666735682666443
-0.0637426596999121
-0.0596277873735906
-0.0691981728569361
-0.0669114718603238
-0.0729589668970425
-0.0750077642999748
-0.0732957676626825
-0.0780254535980007
-0.0833419603333054
-0.0801558706525186
-0.075907152984268
-0.0791748623166401
-0.078681777608906
-0.0750077642999748
-0.0708406662833096
-0.0688734885319626
-0.0628259934952444
-0.0682344420414319
-0.0708406662833096
-0.0666735682666443
-0.0636386014482436
-0.0583393722333138
-0.0583393722333138
-0.0579974103879657
-0.0519499153512474
-0.0459024203145287
-0.0559883291055423
-0.0546429203242998
-0.0555820251290504
-0.0583393722333138
-0.065516811057593
-0.0807754522120038
-0.0761891475196279
-0.0409965923771258
-0.00738000111908533
0.0332136540801463
0.101591870493468
0.207479523265313
0.372432375491698
0.59701738991702
0.771241970464752
0.902081386798472
0.936570775084931
0.713198160757382
0.351749066695149
0.107272213180948
-0.0406492476863622
-0.125147572100696
-0.137514234549954
-0.15448526547057
-0.172803106324919
-0.163696018458961
-0.161114420227804
-0.146437831923244
-0.119371356310734
-0.0891338811268325
-0.0629520972176936
-0.0423000976270688
-0.0302051075536318
-0.0250025880999916
-0.0217595047782544
-0.0176247743917862
-0.0208354900833263
-0.0161183137179765
-0.0125012940499958
-0.00833419603333054
-0.00631002464115183
-0.00416709801666527
0
0
0.00121156343917951
0.00725905847598612
0.00752893657059141
0.00416709801666527
0.00833419603333054
0.00833419603333054
0.00833419603333054
0.00833419603333054
0.0158410871330224
0.0166683920666611
0.0166683920666611
0.0218959306601196
0.0220617505031449
0.0250025880999916
0.0250025880999916
0.0291696861166569
0.0291696861166569
0.0291696861166569
0.0333367841333221
0.029734461445862
0.0333367841333221
0.0333367841333221
0.0407616624522452
0.0375038821499874
0.0416709801666527
0.0440543909245543
0.045838078183318
0.0478151849647788
0.0538626800014975
0.0500051761999832
0.0534563760250368
0.0583393722333138
0.064429163930343
0.0708406662833096
0.0734792581553403
0.0753596551754372
0.0814071502121555
0.0833419603333054
0.0851679442523138
0.0912154392890987
0.0972629343258174
0.100010352399966
0.104177450416632
0.107071223402761
0.117285816456145
0.125820780502433
0.133748672559215
0.143762497599749
0.149809992636467
0.157532348729757
0.169627338803193
0.177555230860202
0.189650220933639
0.193411014973745
0.205506005047182
0.21343389710419
0.223192541030443
0.233456779234399
0.243621727137211
0.242048343792465
0.253073357388285
0.265168347461722
0.271978805300868
0.278026300337672
0.283362665133238
0.285954192394477
0.295863959183234
0.295863959183234
0.299929579488085
0.298252137891661
0.299523275511526
0.291746113188077
0.280109652781387
0.273095846389429
0.263847564691285
0.251952949501797
0.227762969354512
0.208047494028784
0.19188430311076
0.163779825520984
0.14350434281654
0.115806169203759
0.0963458749920856
0.0782033898816649
0.0592457162785661
0.0404469071575046
0.028351917084068
0.0139676454740889
-2.58053985404362e-06
-0.00605007557657231
-0.0158609451932515
-0.0250025880999916
-0.0283596587035113
-0.0333367841333221
-0.036287550760283
-0.0416709801666527
-0.0442154428171731
-0.0580816105794056
-0.0520341155426869
-0.0620608432820285
-0.0607746155524578
-0.0583393722333138
-0.0583393722333138
-0.0583393722333138
-0.062506470249979
-0.062506470249979
-0.0671865110346071
-0.0708406662833096
-0.0666735682666443
-0.0666735682666443
-0.0705410010982731
-0.0708406662833096
-0.0708406662833096
-0.06784799612522
-0.0677858414046799
-0.062506470249979
-0.062506470249979
-0.0621446503444025
-0.0583393722333138
-0.0624619861789967
-0.0583393722333138
-0.0583393722333138
-0.0528643941452439
-0.0583393722333138
-0.0573160672372132
-0.0512685722004051
-0.0506221772196143
-0.0541722742166485
-0.0583393722333138
-0.0583393722333138
-0.0543678811500166
-0.0558570643033334
-0.0583393722333138
-0.055450760326893
-0.0583393722333138
-0.0541722742166485
-0.0541722742166485
-0.0583393722333138
-0.0583393722333138
-0.0541722742166485
-0.0541722742166485
-0.0541722742166485
-0.0557059414409476
-0.0583393722333138
-0.0583393722333138
-0.0583393722333138
-0.0590604315046132
-0.062506470249979
-0.0583393722333138
-0.0583393722333138
-0.0583393722333138
-0.062506470249979
-0.0588372248915723
-0.0541722742166485
-0.0574352155986144
-0.0551485146020021
-0.0611960096387204
-0.0589093086421252
-0.0649568036789457
-0.0585030046656682
-0.0604624407975716
-0.0583393722333138
-0.0608687447740116
-0.0583393722333138
-0.0600436272511626
-0.0572840927361981
-0.0608562352040443
-0.0541722742166485
-0.0583393722333138
-0.0560401616667864
-0.0541847837866166
-0.0564464656432926
-0.0503989706065739
-0.0514917788134883
-0.0508052745830143
-0.0541722742166485
-0.0541722742166485
-0.0548462688771308
-0.0557849805526787
-0.0541722742166485
-0.0541722742166485
-0.0541722742166485
-0.0565975885056784
-0.0541722742166485
-0.0570038924822372
-0.0541722742166485
-0.0583393722333138
-0.0611489450280029
-0.062506470249979
-0.062506470249979
-0.0583393722333138
-0.0583393722333138
-0.0583393722333138
-0.0609158093848483
-0.0583393722333138
-0.0595237291220045
-0.0594417163412353
-0.0583393722333138
-0.0609978221655738
-0.0621347213142875
-0.0605915181890583
-0.062506470249979
-0.0583393722333138
-0.0620656112326705
-0.0639460082527235
-0.0633536332438459
-0.0593726062595292
-0.0654201012963365
-0.062506470249979
-0.062506470249979
-0.062506470249979
-0.062506470249979
-0.0585250501365677
-0.0583393722333138
-0.0583393722333138
-0.0583393722333138
-0.0583393722333138
-0.062506470249979
-0.062506470249979
-0.0583393722333138
-0.0583393722333138
-0.0584088754441144
-0.062506470249979
-0.062506470249979
-0.0640500665043923
-0.0666735682666443
-0.0553095664945029
-0.0613570615313069
-0.062506470249979
-0.062506470249979
-0.0666735682666443
-0.0644684869216734
-0.062506470249979
-0.0648747908981765
-0.062506470249979
-0.0652810948746962
-0.059233599837899
-0.0615203008345108
-0.0583393722333138
-0.0577595067943879
-0.0541722742166485
-0.054345835679117
-0.0562854137507918
-0.0541722742166485
-0.0583393722333138
-0.0583393722333138
-0.0583393722333138
-0.0583393722333138
-0.0591744187863961
-0.0597910266768436
-0.0587681148098369
-0.062506470249979
-0.0624840316498968
-0.0583393722333138
-0.0583393722333138
-0.0583393722333138
-0.0583393722333138
-0.0583393722333138
-0.0583393722333138
-0.0583393722333138
-0.0583393722333138
-0.062506470249979
-0.062506470249979
-0.062506470249979
-0.0541722742166485
-0.0505401644388456
-0.0513505849811739
-0.0541722742166485
-0.0574002674285635
-0.0541722742166485
-0.0541722742166485
-0.0565854720648929
-0.0582128753815627
-0.0561791680884526
-0.0544520813414562
-0.0516057660952285
-0.0541722742166485
-0.0571450863145089
-0.0510975912777906
-0.0541722742166485
-0.0541722742166485
-0.0583393722333138
-0.0583393722333138
-0.0583393722333138
-0.0601951432426659
-0.062506470249979
-0.0583393722333138
-0.0583393722333138
-0.0614633071936492
-0.0583393722333138
-0.0583393722333138
-0.0558221161334005
-0.054402829319956
-0.0562284201098413
-0.0541722742166485
-0.0524676260697344
-0.0500051761999832
-0.0500051761999832
-0.0531839173905094
-0.0541722742166485
-0.0513998370026816
-0.0421567163841267
-0.052936477895899
-0.0540928419757337
-0.0500051761999832
-0.0538454024811131
-0.0526187489321207
-0.0465712538954024
-0.0469852994912865
-0.0500051761999832
-0.0534313568851203
-0.0473838618484021
-0.0416709801666527
-0.043885990541738
-0.045838078183318
-0.045838078183318
-0.045838078183318
-0.0416709801666527
-0.0416709801666527
-0.042667078612235
-0.0487145736489537
-0.045838078183318
-0.0483082696725133
-0.0541722742166485
-0.0521083867040119
-0.0539494607326728
-0.0500051761999832
-0.0535431567562324
-0.0541722742166485
-0.0510405976369581
-0.055017249799845
-0.0556139996300643
-0.0504438478066204
-0.0541722742166485
-0.0500375438301805
-0.0522595095663982
-0.0462120145296799
-0.0484987155262489
-0.042451220489455
-0.045838078183318
-0.0428575244660143
-0.0416709801666527
-0.0442452299075164
-0.045838078183318
-0.0480060239476224
-0.0540535189843406
-0.0500051761999832
-0.0463631373920657
-0.0444827403720127
-0.0416709801666527
-0.0342858179681875
-0.0403333130049057
-0.0369611522916814
-0.0333367841333221
-0.0375038821499874
-0.0375038821499874
-0.0414011020719595
-0.0416709801666527
-0.0416709801666527
-0.045838078183318
-0.0427534662143451
-0.038301793122348
-0.0470275961516322
-0.0587309792292335
-0.062506470249979
-0.0583540692139523
-0.0583393722333138
-0.0545932751737279
-0.0500051761999832
-0.0433255900339301
-0.0416709801666527
-0.0416709801666527
-0.0416709801666527
-0.0391437950366253
-0.0421519484334966
-0.0500051761999832
-0.0500051761999832
-0.0558868513936767
-0.0583393722333138
-0.0541722742166485
-0.0541722742166485
-0.0592413414573427
-0.062506470249979
-0.062506470249979
-0.0648825325176202
-0.0665842069956154
-0.062506470249979
-0.062506470249979
-0.0599028265479557
-0.062506470249979
-0.0583393722333138
-0.0583393722333138
-0.0583393722333138
-0.0583393722333138
-0.053827731831565
-0.0522301156051829
-0.0541722742166485
-0.0541722742166485
-0.0541722742166485
-0.0541722742166485
-0.0541722742166485
-0.0561843291680413
-0.0682793192414797
-0.0791748623166401
-0.0667742597200927
-0.0282025885031709
-3.89298623297639e-05
0.039967904535756
0.11502133229498
0.224521629913578
0.407941036680914
0.619367646783164
0.783096647769188
0.911824718850264
0.908048935503121
0.622348180344512
0.273463492668403
0.0670104194331023
-0.071894715991692
-0.13372920762804
-0.141681332566619
-0.161679981815374
-0.167860535935858
-0.165276357164958
-0.153181367091325
-0.140491421469157
-0.111945691733447
-0.0797189933276088
-0.0494815181434206
-0.0301999464739242
-0.0278044192752375
-0.0185112603770469
-0.0166683920666611
-0.0138290321816287
-0.0125012940499958
-0.0125012940499958
-0.00818784112135124
-0.00619384994869849
-0.00442704708124432
0
0
0
0
0.00335925801419053
0.00268823702260414
0.00416709801666527
0.00644903106275308
0.0124965260994713
0.00833419603333054
0.0158462482127305
0.0166683920666611
0.0200181141798027
0.0218985111998859
0.0250025880999916
0.0250025880999916
0.027539702260134
0.0286688597895824
0.0208354900833263
0.0288579044908355
0.0308941923237992
0.0333367841333221
0.0291696861166569
0.0291696861166569
0.0375038821499874
0.0347115868757913
0.0338423784110244
0.0375038821499874
0.0375038821499874
0.0394835694711843
0.0416709801666527
0.0416709801666527
0.0416709801666527
0.0470051575515156
0.0500051761999832
0.0507659515917401
0.0541722742166485
0.0583393722333138
0.0605742406686288
0.0666217357054019
0.0685021327254549
0.0745496277621732
0.0764300247822666
0.0824775198190638
0.0853738733449282
0.0945725098925003
0.100620004929236
0.106667499966055
0.11688209301944
0.125013333629023
0.133144181109542
0.139191676146378
0.148797009799574
0.156724901856345
0.168819891929784
0.176747783986792
0.18609754339675
0.196770666116999
0.206526729503517
0.212626450230781
0.222788817593738
0.232649332360988
0.24057722441776
0.245858782983251
0.252265910514874
0.261360488810779
0.263954596611753
0.27345547888429
0.279502973921053
0.285550468957771
0.29159796399449
0.291696861166569
0.291696861166569
0.287529763149904
0.284274170258317
0.277257783326386
0.268012082168096
0.256672313277644
0.233643858290315
0.212053147023648
0.193910661913491
0.171851098821136
0.151828216690928
0.131149010549397
0.111782452430035
0.0875924722831619
0.0650380302014666
0.0502448740751582
0.0325138540210261
0.0181270018713858
-1.03221591793024e-05
-0.0102197541330268
-0.0162672491698099
-0.0279610963463971
-0.0366964352765779
-0.0427439303133266
-0.0487914253501328
-0.0541722742166485
-0.0567193174069041
-0.0627668124436307
-0.0645328290528286
-0.0665276064838477
-0.0666735682666443
-0.0666735682666443
-0.0666735682666443
-0.0666735682666443
-0.0666735682666443
-0.0666735682666443
-0.0666735682666443
-0.0666735682666443
-0.0750077642999748
-0.0730181479486638
-0.0708406662833096
-0.076008237566898
-0.0673769568883855
-0.0720176746816214
-0.0750077642999748
-0.0750077642999748
-0.0750077642999748
-0.0750077642999748
-0.0750077642999748
-0.0750077642999748
-0.0731692708110492
-0.0708406662833096
-0.0750077642999748
-0.0750077642999748
-0.0739818787640493
-0.0737469488392881
-0.079794443876024
-0.0833419603333054
-0.0752210418829003
-0.0812685369196204
-0.0833419603333054
-0.0791748623166401
-0.0827426299632325
-0.0875090583499706
-0.0875090583499706
-0.0866342956764313
-0.0860971200268977
-0.0833419603333054
-0.0833419603333054
-0.0833419603333054
-0.0852845120738994
-0.0836861095893236
-0.0807111100806748
-0.0833419603333054
-0.0780449185290462
-0.0750077642999748
-0.0750077642999748
-0.0750077642999748
-0.0750077642999748
-0.072810031445328
-0.0749187961580102
-0.0750077642999748
-0.0750077642999748
-0.0722257911849581
-0.0750077642999748
-0.0750077642999748
-0.0750077642999748
-0.0750077642999748
-0.0750077642999748
-0.0791748623166401
-0.0791748623166401
-0.0791748623166401
-0.0750077642999748
-0.0855698734075433
-0.0821079582940431
-0.0791748623166401
-0.0825142622706024
-0.0791748623166401
-0.0912547622803738
-0.0852072672436546
-0.0791748623166401
-0.0810703494464507
-0.0833419603333054
-0.0818527771799885
-0.0791748623166401
-0.0833419603333054
-0.0803786841363764
-0.0833419603333054
-0.0807849881129347
-0.0752780355237409
-0.0791748623166401
-0.0872369928446057
-0.0857646940825992
-0.0833419603333054
-0.0846800206242359
-0.0842906010389871
-0.0833419603333054
-0.0861541136677306
-0.0875090583499706
-0.0851032089919862
-0.0792940106780122
-0.0853415057147305
-0.0836291159483823
-0.0791748623166401
-0.0826485007416783
-0.0833419603333054
-0.0772072914361714
-0.0750077642999748
-0.0723467338279359
-0.0708406662833096
-0.0685859397877658
-0.0708086917822954
-0.0773264397976012
-0.0750077642999748
-0.0791748623166401
-0.0791748623166401
-0.0750077642999748
-0.0750077642999748
-0.0750077642999748
-0.0800275795192803
-0.0831187537202649
-0.0791748623166401
-0.0791748623166401
-0.0816446606766528
-0.0755971656399345
-0.0721316619634047
-0.078179157000123
-0.0741230725963205
-0.0736057550070169
-0.0708406662833096
-0.0708406662833096
-0.0708406662833096
-0.0708406662833096
-0.0746735440740698
-0.0692944894891616
-0.0666735682666443
-0.0666735682666443
-0.0696938381044062
-0.0708406662833096
-0.0708406662833096
-0.0705134014186008
-0.0666735682666443
-0.0666735682666443
-0.0666735682666443
-0.0703553231950182
-0.0694456123515479
-0.0633981173148278
-0.0708406662833096
-0.0708406662833096
-0.0744253183212114
-0.0708406662833096
-0.0789987203143175
-0.0729512252775993
-0.0747776023257381
-0.0708406662833096
-0.0708406662833096
-0.0708406662833096
-0.0739649943727398
-0.0700030391904916
-0.0666735682666443
-0.0708406662833096
-0.0685289461468794
-0.0666985874064622
-0.0689352501233845
-0.0666735682666443
-0.0678424419164477
-0.0591269610464951
-0.0646920866637863
-0.0708406662833096
-0.0708406662833096
-0.0657068637823401
-0.0669537685205247
-0.0708406662833096
-0.0667996719892127
-0.0750077642999748
-0.0713730739824363
-0.0750077642999748
-0.0717793779588771
-0.0750077642999748
-0.0750077642999748
-0.0708406662833096
-0.0684248878952111
-0.0665444908751581
-0.062506470249979
-0.062506470249979
-0.062506470249979
-0.062506470249979
-0.0607331051503938
-0.0666735682666443
-0.062506470249979
-0.0651774297521321
-0.0587236307388546
-0.0693004368269536
-0.0750077642999748
-0.0708406662833096
-0.0708406662833096
-0.0708406662833096
-0.0708406662833096
-0.0708406662833096
-0.0737668068995173
-0.0743683246803612
-0.0708406662833096
-0.0666735682666443
-0.0666735682666443
-0.0706674979499058
-0.0691334375965419
-0.0702611939734649
-0.0750077642999748
-0.0750077642999748
-0.0773856208491051
-0.0680656485294881
-0.0750077642999748
-0.0726390505227117
-0.0708406662833096
-0.0708406662833096
-0.0708406662833096
-0.0734516584757119
-0.0708406662833096
-0.0708406662833096
-0.0708406662833096
-0.0708406662833096
-0.0708406662833096
-0.0663363743718205
-0.0647240611648559
-0.0748695441365039
-0.0666735682666443
-0.0666735682666443
-0.0708406662833096
-0.0675552863013799
-0.0676722472519901
-0.0679615902778207
-0.0666735682666443
-0.0642007962377129
-0.0706545952509851
-0.0625406321616631
-0.0622862373058573
-0.0683337323425756
-0.0708406662833096
-0.0695868061838191
-0.0698078253861878
-0.0708406662833096
-0.0708406662833096
-0.0708406662833096
-0.0708406662833096
-0.0708756144532425
-0.0750077642999748
-0.0750077642999748
-0.0734987230864298
-0.0708406662833096
-0.0697379290462924
-0.0666735682666443
-0.062506470249979
-0.0650833005305779
-0.0705505369993138
-0.0666735682666443
-0.0666735682666443
-0.0666735682666443
-0.0666735682666443
-0.0680314866178031
-0.0708406662833096
-0.0708406662833096
-0.0680086548886561
-0.0630517806481386
-0.0690992756848578
-0.0707016598617083
-0.0666735682666443
-0.0627737678048262
-0.062506470249979
-0.0590129737647126
-0.0541722742166485
-0.0572594667254443
-0.0617059787377648
-0.0529775951687793
-0.0549606492879583
-0.062506470249979
-0.0583514886740987
-0.0564710916540458
-0.0579209518159695
-0.0612633254388143
-0.0733583155124065
-0.0781191896903713
-0.072071694653653
-0.0798242309663681
-0.0808121946634244
-0.0750077642999748
-0.0707608409133296
-0.0666735682666443
-0.0691235085664278
-0.0630760135297086
-0.0598847627693322
-0.0573635249770249
-0.062506470249979
-0.062506470249979
-0.0708406662833096
-0.0684620234759333
-0.0708406662833096
-0.0708406662833096
-0.0746934021342998
-0.0776088274622621
-0.0715613324254459
-0.0731601280391839
-0.07613473441865
-0.0723475200860653
-0.0791748623166401
-0.0750077642999748
-0.0750077642999748
-0.066791930369887
-0.0684947842351286
-0.0671390532947055
-0.0652586562746525
-0.062506470249979
-0.0666735682666443
-0.0695625733022482
-0.0738031562219916
-0.0666735682666443
-0.0664775682042064
-0.062506470249979
-0.062506470249979
-0.0741808524954023
-0.0827253524427394
-0.0699526077815528
-0.0394742553353628
-0.00404677026809943
0.0398801157817661
0.111396349242318
0.224477317206419
0.405868964018237
0.616149360837816
0.774740184499641
0.897485324440293
0.878272348760659
0.581911081252839
0.236712916456865
0.0281790209168186
-0.102314280515434
-0.162816880964055
-0.166683920666611
-0.186988182438236
-0.192305304067838
-0.187519410749937
-0.17924877058945
-0.164354529880622
-0.139117626750282
-0.0996271019180221
-0.0822314814767579
-0.0701364914033214
-0.0622085993465501
-0.0501136092731118
-0.045838078183318
-0.0416709801666527
-0.0416709801666527
-0.0375038821499874
-0.0375038821499874
-0.0366934616076591
-0.0306459665709408
-0.0250025880999916
-0.0227180745141037
-0.0208354900833263
-0.0250025880999916
-0.0212439814705556
-0.0223073957161919
-0.0216502854469964
-0.0166683920666611
-0.0166683920666611
-0.0125012940499958
-0.0125012940499958
-0.0125012940499958
-0.0125012940499958
-0.0125012940499958
-0.00833419603333054
-0.00472671226628075
-0.00416709801666527
-0.00416709801666527
0
0
0
0
0
0.00198226786105046
0.00416709801666527
0.00574306190115645
0.00833419603333054
0.0125012940499958
0.0125012940499958
0.0208354900833263
0.0234792430349474
0.0250025880999916
0.0272400370750967
0.0291696861166569
0.0310008311152547
0.0333367841333221
0.0375038821499874
0.0375038821499874
0.0437080542578056
0.0500051761999832
0.0506174092690899
0.0591575343949678
0.0627123993425323
0.0687598943793631
0.0708406662833096
0.0708406662833096
0.0779615045957346
0.0887827765096912
0.097984386726183
0.10331003623347
0.105505974806395
0.112972756656683
0.123703266146948
0.137514234549954
0.139449437800223
0.14931253310739
0.1629364224546
0.174260314977104
0.18255300060835
0.19468950108399
0.202169578762258
0.217715375531585
0.221166182227484
0.227213677264312
0.23326117230103
0.239308667337748
0.245356162374466
0.255570755427968
0.261618250464689
0.266694273066577
0.266694273066577
0.275028469099908
0.265246207186141
0.258518941515076
0.260487913548029
0.246601101467106
0.240058727441144
0.226984523313436
0.213009136219944
0.191759600540496
0.172557067982611
0.154414582872456
0.132104999745636
0.113962514635286
0.0958122879055283
0.069734169119159
0.0470337652546661
0.0315765434980675
0.0107487950339984
-0.00215106137299405
-0.0112901237398815
-0.0221739435032417
-0.031719309846767
-0.0419339029001505
-0.0479813979368688
-0.0500051761999832
-0.0576463057708685
-0.062506470249979
-0.0666735682666443
-0.0666735682666443
-0.0717650741074213
-0.0778125691441395
-0.0791748623166401
-0.0815733631842455
-0.0791748623166401
-0.0791748623166401
-0.0791748623166401
-0.0849278532479116
-0.0875090583499706
-0.088688647288136
-0.0886161704084175
-0.0833419603333054
-0.0859956423150408
-0.0867750963796383
-0.0814222403218593
-0.0833419603333054
-0.0875090583499706
-0.0875090583499706
-0.0875090583499706
-0.0908242254222436
-0.0875090583499706
-0.0875090583499706
-0.0881312204491914
-0.0891735972473621
-0.0875090583499706
-0.0854128032071368
-0.0833419603333054
-0.0858191071836961
-0.0833419603333054
-0.0833419603333054
-0.0833419603333054
-0.0842193035465798
-0.0875090583499706
-0.0875090583499706
-0.0875090583499706
-0.0875090583499706
-0.0875090583499706
-0.0875090583499706
-0.0875090583499706
-0.090928283673912
-0.0905436320392737
-0.0875090583499706
-0.0875090583499706
-0.0875090583499706
-0.0836618767076443
-0.0875090583499706
-0.0915897687645249
-0.0875090583499706
-0.0911834647879656
-0.0861213529084676
-0.0866100627948614
-0.0833419603333054
-0.0833419603333054
-0.079749959805143
-0.0833419603333054
-0.0836795473571925
-0.0896269658346393
-0.0796498832456481
-0.0808177488721977
-0.0833419603333054
-0.0845785429123037
-0.0875090583499706
-0.0866787797474132
-0.0860526359559158
-0.0833419603333054
-0.085646331979422
-0.0874913877004133
-0.0833419603333054
-0.0833419603333054
-0.0890008220430659
-0.0883039956534116
-0.0875090583499706
-0.0904749150866357
-0.0916761563666359
-0.0916761563666359
-0.0916761563666359
-0.0938294051503008
-0.0958432543833012
-0.0916761563666359
-0.0953034981939148
-0.0945026135526345
-0.0981182320680752
-0.0990760155457406
-0.0958432543833012
-0.0958432543833012
-0.0934348244855816
-0.0916761563666359
-0.0936782822879164
-0.0958432543833012
-0.0932719783113572
-0.0993194733481742
-0.0946537364150208
-0.0947460713549693
-0.100010352399966
-0.100010352399966
-0.100010352399966
-0.100010352399966
-0.100010352399966
-0.098159349341138
-0.0921118543043539
-0.100010352399966
-0.0966852562975784
-0.0968816494891064
-0.102929144525914
-0.0993782612706316
-0.0983557425326891
-0.100010352399966
-0.0979041682270176
-0.0958432543833012
-0.105877330613021
-0.108344548433297
-0.101303928619915
-0.110525396896635
-0.107457276189908
-0.106945119680074
-0.108344548433297
-0.108344548433297
-0.108419212723686
-0.112511646449962
-0.10484072978875
-0.103107867067973
-0.111773702787353
-0.108344548433297
-0.114390249188463
-0.115942595085624
-0.112511646449962
-0.103847605012178
-0.104430837249197
-0.112435187877967
-0.108344548433297
-0.112028883901408
-0.11528110999501
-0.109233614958292
-0.108344548433297
-0.108344548433297
-0.111926619931345
-0.108344548433297
-0.108344548433297
-0.108344548433297
-0.108344548433297
-0.108344548433297
-0.108344548433297
-0.112511646449962
-0.109384737820708
-0.113351854082634
-0.113958139813903
-0.112511646449962
-0.110197345773731
-0.108372148112968
-0.112511646449962
-0.108723252730183
-0.109846241156507
-0.112511646449962
-0.111416257703236
-0.105368762666518
-0.100010352399966
-0.100010352399966
-0.108061767639571
-0.102014272602853
-0.100010352399966
-0.102420576579292
-0.100010352399966
-0.100010352399966
-0.100010352399966
-0.105121716300972
-0.105519885528904
-0.104177450416632
-0.106595809344465
-0.108212890501957
-0.104177450416632
-0.100284998445186
-0.104177450416632
-0.104177450416632
-0.108344548433297
-0.108344548433297
-0.104177450416632
-0.101503910374667
-0.100010352399966
-0.100010352399966
-0.100010352399966
-0.104177450416632
-0.104177450416632
-0.104177450416632
-0.104177450416632
-0.104177450416632
-0.104177450416632
-0.100010352399966
-0.102532769579468
-0.104177450416632
-0.104177450416632
-0.104177450416632
-0.101720161626468
-0.104177450416632
-0.108344548433297
-0.108344548433297
-0.10655014588629
-0.102787950693523
-0.108344548433297
-0.110715842750413
-0.112427053129459
-0.108344548433297
-0.108344548433297
-0.108344548433297
-0.104905465049127
-0.10532983280419
-0.108344548433297
-0.104177450416632
-0.101550974985461
-0.0961830288178592
-0.102230523854641
-0.100076881941849
-0.101824219878137
-0.104177450416632
-0.104177450416632
-0.100889489894848
-0.0958432543833012
-0.0987249109285261
-0.100010352399966
-0.0975349998311824
-0.100199003972138
-0.100039353232182
-0.0958432543833012
-0.100010352399966
-0.100010352399966
-0.0987539117607399
-0.0989800920426699
-0.0958432543833012
-0.0931127207004625
-0.0912323236804095
-0.0875090583499706
-0.0875090583499706
-0.0855911326201302
-0.0833419603333054
-0.0890206801032947
-0.0882841375931833
-0.0886143761268109
-0.0946618711635292
-0.0916761563666359
-0.0916761563666359
-0.0916761563666359
-0.0960223700544259
-0.11217086399181
-0.108344548433297
-0.111991748320804
-0.113957746684838
-0.105103652522349
-0.100010352399966
-0.100010352399966
-0.0989145705241769
-0.0965327322825351
-0.10389427649372
-0.0938212704017924
-0.0955785373681977
-0.101626032404916
-0.107673527441734
-0.10538682644514
-0.108344548433297
-0.107541476381348
-0.10686091948871
-0.116281976391117
-0.112511646449962
-0.108354084334346
-0.108344548433297
-0.108344548433297
-0.104177450416632
-0.107522404579248
-0.107286295267263
-0.104177450416632
-0.104177450416632
-0.101645104207014
-0.100255997612979
-0.104177450416632
-0.104177450416632
-0.0982906141433486
-0.0958432543833012
-0.0932163858229472
-0.0875090583499706
-0.0907690260630163
-0.0875090583499706
-0.093178635348172
-0.106558673763863
-0.103704838663535
-0.0714924441092708
-0.0352074738883038
0.00107749633205893
0.0546075286237914
0.155913201123086
0.319347254472089
0.525000007560531
0.708748917004516
0.847349054801169
0.886126362785124
0.681783999745946
0.32004858672736
0.0662068332913967
-0.0768521547249234
-0.147228958898479
-0.16983983012799
-0.175358677392628
-0.191081624187755
-0.187519410749937
-0.182557990324121
-0.16460494304427
-0.150638698722427
-0.119143996641224
-0.0864120970868671
-0.064140828927963
-0.0551926055438307
-0.0449780124904181
-0.0416709801666527
-0.0333367841333221
-0.0333367841333221
-0.0292171438565584
-0.0333367841333221
-0.0257202805733071
-0.0208354900833263
-0.0174335422797597
-0.0166683920666611
-0.0136727482396537
-0.0117923512195805
-0.00574485618276214
-0.00833419603333054
-0.0039681242853123
-0.00406343289406211
-0.00655746413576226
-0.000509969099044001
0.00279667009565628
0
0.00416709801666527
0.00416709801666527
0.00889201600133941
0.00762486007386838
0.00431861400823514
0.0103661090449534
0.0125012940499958
0.0150427830315975
0.0125012940499958
0.0178876971252838
0.0239351921620021
0.0258155891820551
0.0291696861166569
0.0287629890110324
0.0272896822256691
0.0291696861166569
0.0291696861166569
0.0291696861166569
0.0333367841333221
0.0333367841333221
0.0344049663294706
0.0375038821499874
0.0375038821499874
0.0375038821499874
0.0419265544097797
0.045838078183318
0.0418217098999737
0.0534645107734471
0.0511192436197439
0.0568190008372307
0.0657102305803231
0.0708406662833096
0.0708406662833096
0.080196373031222
0.0899002107273146
0.0959477057640347
0.101995200800753
0.108042695837581
0.114090190874308
0.123596627355425
0.134519376981075
0.14056687201788
0.150781465071295
0.156828960108014
0.167403185656183
0.179498175729747
0.191593165803297
0.199521057860068
0.211616047933505
0.218116518428476
0.224164013465272
0.23854570453532
0.244593199572039
0.251870321826491
0.262527175049912
0.263152703947112
0.277117375752363
0.279195567116573
0.280878169792587
0.283362665133238
0.279195567116573
0.276038871396976
0.274158474376894
0.262610195854042
0.253265597523672
0.238826519683528
0.224793745819862
0.202541549463058
0.188217245163024
0.159026521598846
0.132200923248561
0.113303216955422
0.0891495861310242
0.0694029225622503
0.0521093947272564
0.032399080481117
0.0142565953709567
-0.00388588973919813
-0.0142879549776782
-0.0240025079621318
-0.03055004306778
-0.0398582920756743
-0.0436190861160172
-0.0528596261947185
-0.0589071212314367
-0.062506470249979
-0.0668350132883283
-0.0708406662833096
-0.0708406662833096
-0.0724762043484873
-0.0750077642999748
-0.0750077642999748
-0.0750077642999748
-0.0799977924288177
-0.0806386332009961
-0.0795914884523787
-0.0833419603333054
-0.0833316381741261
-0.0772841431373541
-0.0787788804993786
-0.0791748623166401
-0.0791748623166401
-0.0791748623166401
-0.0791748623166401
-0.0798466695664333
-0.0833419603333054
-0.0791748623166401
-0.0791748623166401
-0.0791748623166401
-0.0791748623166401
-0.0755548689797411
-0.07634105664038
-0.0759611729561819
-0.0750077642999748
-0.0750077642999748
-0.0791748623166401
-0.0791748623166401
-0.0791748623166401
-0.0811696397475407
-0.0833419603333054
-0.0833419603333054
-0.0798730898587926
-0.0791748623166401
-0.0791748623166401
-0.0791748623166401
-0.0765185997951256
-0.0788053007917379
-0.0750077642999748
-0.0708774087348482
-0.072684320851824
-0.0787318158885422
-0.0750077642999748
-0.0783255119121014
-0.0833419603333054
-0.0833419603333054
-0.0868843157109979
-0.0808368206741771
-0.0793933009791561
-0.0833419603333054
-0.0833419603333054
-0.0833419603333054
-0.0797690316071224
-0.0833419603333054
-0.0833419603333054
-0.0866291345968408
-0.0833419603333054
-0.0833419603333054
-0.0833419603333054
-0.0833419603333054
-0.0813942475131226
-0.0791748623166401
-0.0833419603333054
-0.0833419603333054
-0.0833419603333054
-0.0803264584460698
-0.0840707612239494
-0.0875090583499706
-0.0826969665049367
-0.0750077642999748
-0.0709244733456827
-0.0827680422322368
-0.080155084394268
-0.0722309522645486
-0.0782784473012669
-0.0750077642999748
-0.077872143324826
-0.0785971842884012
-0.0750077642999748
-0.0748363902481767
-0.0728924373551607
-0.0750077642999748
-0.0708406662833096
-0.0743665303987546
-0.0779356991977891
-0.0781273244388788
-0.0791748623166401
-0.0791748623166401
-0.0791748623166401
-0.0791748623166401
-0.0791951135059354
-0.0814413121239031
-0.0791748623166401
-0.0765021085328823
-0.0825496035696005
-0.0791748623166401
-0.0791748623166401
-0.0791748623166401
-0.0817369956166004
-0.0872336260466148
-0.0833419603333054
-0.0833419603333054
-0.0791748623166401
-0.0828047846836533
-0.081998738962786
-0.0791748623166401
-0.0791748623166401
-0.0848094911446662
-0.0869784449324514
-0.0809309498957332
-0.0751320737409347
-0.0791748623166401
-0.0830599657978201
-0.0817435578487296
-0.0791748623166401
-0.0791748623166401
-0.0791748623166401
-0.0791748623166401
-0.0765086707650115
-0.0750077642999748
-0.0772676518751084
-0.0791748623166401
-0.0791748623166401
-0.0791748623166401
-0.0750077642999748
-0.0750077642999748
-0.071881641928938
-0.0779291369656562
-0.0743730926308877
-0.0733557349725501
-0.0833419603333054
-0.0833419603333054
-0.0833419603333054
-0.0791748623166401
-0.0791748623166401
-0.0817671758360098
-0.081155950790495
-0.0717305190665535
-0.0777780141032718
-0.0791748623166401
-0.0768109164898352
-0.0708406662833096
-0.0708406662833096
-0.0746787051536594
-0.0776235244428584
-0.0715760294060658
-0.0708406662833096
-0.076891528118009
-0.0791748623166401
-0.0791748623166401
-0.0753401902442733
-0.0813876852809916
-0.0874351803177098
-0.0797289223574841
-0.0750077642999748
-0.0833419603333054
-0.0833419603333054
-0.0865151473150583
-0.0833419603333054
-0.0827543532749523
-0.0791748623166401
-0.0835232634152176
-0.0875090583499706
-0.0835669612279524
-0.0791748623166401
-0.0791748623166401
-0.0750077642999748
-0.0781372534689929
-0.0750077642999748
-0.0777309494925129
-0.0787383781206733
-0.072690883083955
-0.0708406662833096
-0.0708406662833096
-0.0708406662833096
-0.0780163108260179
-0.0799572900502308
-0.0772037028729617
-0.086320326639939
-0.0784831970066187
-0.0750077642999748
-0.075293125633445
-0.0813406206702737
-0.0833419603333054
-0.0791748623166401
-0.0755350109195128
-0.0805280127172735
-0.0768748654919288
-0.0769014571481268
-0.0833419603333054
-0.0797154047642753
-0.0833419603333054
-0.0833419603333054
-0.0833419603333054
-0.0833419603333054
-0.0833419603333054
-0.0833419603333054
-0.0821399327951748
-0.0791748623166401
-0.0783791387549504
-0.0776838848817176
-0.0829525407481749
-0.0791748623166401
-0.0791748623166401
-0.0750077642999748
-0.0787516739487704
-0.069383457631083
-0.0733487796113575
-0.0750077642999748
-0.0750077642999748
-0.0750077642999748
-0.0800577597386878
-0.0833419603333054
-0.0833419603333054
-0.0793428695704552
-0.0808872520829965
-0.0833419603333054
-0.0791748623166401
-0.082361345126492
-0.0741079824866167
-0.0736208451167207
-0.0786813844798413
-0.0773816391568266
-0.0833419603333054
-0.0833419603333054
-0.0833419603333054
-0.0817806934294075
-0.0791748623166401
-0.0791748623166401
-0.0791748623166401
-0.0742591053491001
-0.0734697222543344
-0.0791748623166401
-0.0769521103221745
-0.0750077642999748
-0.0750077642999748
-0.0750077642999748
-0.0750077642999748
-0.0750077642999748
-0.0750077642999748
-0.0778920013850543
-0.0750077642999748
-0.0774856974084968
-0.0789836302046119
-0.0750077642999748
-0.0750077642999748
-0.0750077642999748
-0.0750077642999748
-0.0695816451042285
-0.0666735682666443
-0.0633591874525008
-0.0666735682666443
-0.062506470249979
-0.0578528497577112
-0.0500452854495049
-0.0560927804862777
-0.0545384689435677
-0.0541722742166485
-0.0541722742166485
-0.0594472705499198
-0.0595181749132331
-0.0583393722333138
-0.0557573808731234
-0.0628017606135655
-0.0710249430341433
-0.0871760175113823
-0.0774054789094499
-0.0750077642999748
-0.0750077642999748
-0.0750077642999748
-0.0689271153749293
-0.0596692977757359
-0.058889843711063
-0.062506470249979
-0.0663852332642643
-0.0563148077120708
-0.0580772357580554
-0.062506470249979
-0.062506470249979
-0.0637184268182219
-0.0666735682666443
-0.0674792208584463
-0.0735267158951683
-0.0704413176680631
-0.0666735682666443
-0.0666735682666443
-0.0666735682666443
-0.0666735682666443
-0.0666735682666443
-0.0666735682666443
-0.0656127345607858
-0.062506470249979
-0.062506470249979
-0.0599715435005084
-0.0541722742166485
-0.0541722742166485
-0.0541722742166485
-0.052449955420178
-0.0464024603834597
-0.0471540930032291
-0.0500051761999832
-0.0500051761999832
-0.0500051761999832
-0.0463414850502327
-0.0547727839739188
-0.0707435633928356
-0.0567860687140097
-0.0188327996692585
0.0120230776865035
0.0560669246870603
0.129985025812864
0.238969185229117
0.42053355684412
0.634504458236262
0.795684057253849
0.921380356950891
0.925473899503918
0.623028938837394
0.278129824337201
0.0714226485722287
-0.0594084616493858
-0.116566722830517
-0.126285872401432
-0.136384462126195
-0.149206902339343
-0.137916556834238
-0.141685314258894
-0.125628369003209
-0.102460121336146
-0.0697308023210204
-0.0420312275557325
-0.0238887424455777
-0.0158057458340252
-0.0125012940499958
-0.00833419603333054
-0.00833419603333054
-0.00833419603333054
-0.00640376073358693
-0.000356265696805097
-0.00416709801666527
-0.000762569673364377
0
0.0029982243668619
0.00487862138691489
0.00833419603333054
0.0128065134436948
0.0166683920666611
0.0166683920666611
0.0226148025206307
0.0213428786426343
0.0166683920666611
0.0199217975475776
0.0250025880999916
0.0250025880999916
0.0250025880999916
0.0225617905720752
0.0209895866146304
0.0250025880999916
0.0250025880999916
0.0291696861166569
0.0291696861166569
0.0291696861166569
0.0291696861166569
0.0291696861166569
0.0318656647586278
0.0333367841333221
0.0310471094678454
0.0333397578022418
0.0356205114610147
0.0371005518423478
0.0416709801666527
0.0383135164340678
0.0407161703579051
0.0529563359560088
0.0541722742166485
0.0567171299962332
0.0583393722333138
0.0604779240363392
0.0665254190730593
0.0666735682666443
0.0702862131132837
0.0791748623166401
0.0791748623166401
0.0842616002068917
0.0875090583499706
0.0963565902803282
0.102404085317046
0.112511646449962
0.116486504331241
0.128581494404681
0.130761163480705
0.136808658517522
0.151190349587591
0.154182626616615
0.168220954688774
0.177667030731151
0.187881623784578
0.193929118821298
0.199976613858016
0.212027512989773
0.220405799964902
0.227883297103316
0.236667888055004
0.24790617923376
0.257097074161889
0.262527175049912
0.267522757387409
0.275239559272162
0.283378541501188
0.291501647362264
0.291696861166569
0.298828021638378
0.302919275977255
0.296871780940537
0.294991383920484
0.288943888883686
0.278729295830262
0.272681800793544
0.253953109777575
0.233643858290201
0.217728106866661
0.198051561403143
0.17386158125627
0.150799357486105
0.129648718978715
0.106180191232206
0.088037706122051
0.0695800725880559
0.045390092440745
0.0252760547579008
0.0089228111151626
0.00049745952919382
-0.00971713352430815
-0.019027963072057
-0.0301463196310771
-0.0333367841333221
-0.0380742116879667
-0.044121706724685
-0.0543362997780686
-0.0603837948147868
-0.0585816506483414
-0.059977490838346
-0.0660249858750642
-0.062506470249979
-0.062506470249979
-0.0666735682666443
-0.0639676605945592
-0.0591777855842594
-0.0712727756578266
-0.0749948616009429
-0.0708406662833096
-0.0708406662833096
-0.0666735682666443
-0.0633061755039435
-0.062506470249979
-0.0684286478222621
-0.0666735682666443
-0.0666735682666443
-0.0669416520797327
-0.0708406662833096
-0.0668117884301152
-0.0649313914099437
-0.062506470249979
-0.0666735682666443
-0.06345729836645
-0.0634360391536795
-0.0666735682666443
-0.0666735682666443
-0.0690772302138384
-0.0666735682666443
-0.0666735682666443
-0.0666735682666443
-0.0692496122891155
-0.0666735682666443
-0.0696559162655527
-0.0666735682666443
-0.0666735682666443
-0.0666735682666443
-0.062506470249979
-0.0602539311651693
-0.0624723083381765
-0.0583393722333138
-0.0583393722333138
-0.062506470249979
-0.062506470249979
-0.0677071954220131
-0.0679266421078878
-0.0714679894621191
-0.0725000441011123
-0.0708406662833096
-0.0708406662833096
-0.0708406662833096
-0.0708406662833096
-0.0708406662833096
-0.069551858013888
-0.0666735682666443
-0.0675560725595102
-0.0708406662833096
-0.0708406662833096
-0.0684840689468315
-0.0666735682666443
-0.0666735682666443
-0.0666735682666443
-0.0666735682666443
-0.0632491818631133
-0.0647818410638811
-0.0678225838562194
-0.0639692331109347
-0.0760642231843713
-0.0750077642999748
-0.0750077642999748
-0.0709218928058318
-0.0750077642999748
-0.0750077642999748
-0.0736148977788831
-0.0675674027421649
-0.0666735682666443
-0.063806608702057
-0.0672538268347377
-0.0708406662833096
-0.0710146208748437
-0.0729534126883877
-0.0708406662833096
-0.0708406662833096
-0.0743691109385089
-0.0666735682666443
-0.0697957089453731
-0.0658381285844981
-0.0679381436543774
-0.0704115305777227
-0.0666735682666443
-0.0666735682666443
-0.0666735682666443
-0.0628899424973904
-0.0651766434939601
-0.062506470249979
-0.0646877118423806
-0.0708406662833096
-0.0666735682666443
-0.0666735682666443
-0.0663955554234418
-0.062506470249979
-0.062506470249979
-0.062506470249979
-0.0588739673431114
-0.0568638780371593
-0.0689588681105958
-0.0647945723990152
-0.0555194772794462
-0.0583393722333138
-0.0559257812560055
-0.0583393722333138
-0.060346659234183
-0.062506470249979
-0.0583393722333138
-0.0583393722333138
-0.0571446931854446
-0.0572473502845706
-0.0583393722333138
-0.0583393722333138
-0.0628885413448499
-0.0666735682666443
-0.0666735682666443
-0.062506470249979
-0.062506470249979
-0.062506470249979
-0.0658367274319558
-0.0645864558958561
-0.0612633254388496
-0.0660363160577188
-0.0650241194789575
-0.0666735682666443
-0.0645622230141067
-0.0585147279773884
-0.0608014289740007
-0.0583393722333138
-0.0583393722333138
-0.0583393722333138
-0.0574469389103356
-0.0569451045597585
-0.0583393722333138
-0.060705898599906
-0.062506470249979
-0.062506470249979
-0.0586658508397747
-0.062506470249979
-0.0556378393826889
-0.0594869866703792
-0.0594784587927729
-0.0549135846772423
-0.0609610797139606
-0.062506470249979
-0.062506470249979
-0.062506470249979
-0.062506470249979
-0.0661959667976787
-0.0652707727154385
-0.0657896628212379
-0.062506470249979
-0.062506470249979
-0.062506470249979
-0.0600358856317203
-0.0583393722333138
-0.060403652875015
-0.0585617925881126
-0.0574882275471694
-0.062506470249979
-0.0541722742166485
-0.0573043439254935
-0.0574940035210516
-0.0541722742166485
-0.0546113389523514
-0.0583393722333138
-0.0583721329925758
-0.062506470249979
-0.062506470249979
-0.062506470249979
-0.062506470249979
-0.062506470249979
-0.0595255234036111
-0.0513936678995339
-0.0660633008430949
-0.0622185283766643
-0.0605077111266834
-0.0665552061634016
-0.0583393722333138
-0.0583393722333138
-0.062506470249979
-0.0560342143291303
-0.0541722742166485
-0.0541722742166485
-0.0547153972040197
-0.0583393722333138
-0.0543090932275789
-0.0563221562023304
-0.0541722742166485
-0.0583393722333138
-0.0548480631587374
-0.0553768822946317
-0.0552543671352775
-0.0541722742166485
-0.0514935730950954
-0.0503971763249663
-0.0518998770716124
-0.0458523820348941
-0.0518712693685168
-0.0504257840279965
-0.0472978673753576
-0.0466649899878905
-0.0510586614154936
-0.0512383919809966
-0.045838078183318
-0.0433104999242254
-0.042152734691627
-0.0478839019173315
-0.0418364068806132
-0.0433859504727451
-0.0422427108570703
-0.0429796464963043
-0.0490271415330225
-0.042573342519745
-0.0514035969297668
-0.0490130594466803
-0.0440474355633571
-0.0416709801666527
-0.0436411315868539
-0.045838078183318
-0.0401071327229446
-0.0409481266137484
-0.040513436699471
-0.0344659416626672
-0.034839263114738
-0.0443026166774136
-0.0413260446524942
-0.0375038821499874
-0.0416096117043605
-0.0398519516088919
-0.0338044565721736
-0.0319240595520022
-0.0291696861166569
-0.0250025880999916
-0.0307762233496189
-0.0285695694883371
-0.0274831017483644
-0.0291696861166569
-0.0312438957884704
-0.0333367841333221
-0.0333367841333221
-0.0297884814178928
-0.0400270855876216
-0.0489800769222774
-0.049149878457607
-0.045838078183318
-0.0537232804508315
-0.0430170038421747
-0.0375465719393636
-0.0416709801666527
-0.0378674963371705
-0.0333367841333221
-0.0333367841333221
-0.0333367841333221
-0.0363276600098042
-0.0382080570298772
-0.0416709801666527
-0.0416709801666527
-0.0416709801666527
-0.0416709801666527
-0.0476100421303608
-0.053657537167081
-0.0486395162294978
-0.045838078183318
-0.0500051761999832
-0.0500051761999832
-0.0541722742166485
-0.0517388251791102
-0.0459848262243624
-0.0500051761999832
-0.0382825499565318
-0.0416709801666527
-0.038169742061962
-0.0362893450418901
-0.0333367841333221
-0.0375038821499874
-0.0375038821499874
-0.0337387132884212
-0.0375038821499874
-0.0375038821499874
-0.0333367841333221
-0.0370932033520864
-0.0375038821499874
-0.044204112634401
-0.0552356884622732
-0.0524517497017818
-0.0168928284684043
0.0117796198842853
0.0485969474019348
0.121513002745358
0.222224334590689
0.401356214789529
0.617902938435586
0.788528220370322
0.932967121805722
0.945389679153176
0.686693789215941
0.333457847739083
0.106988011075018
-0.0428671813291505
-0.105536719518858
-0.11698536501286
-0.13288182286906
-0.149302604077158
-0.143513485588692
-0.128370625997651
-0.114395238904161
-0.0909696227122566
-0.0648992455452801
-0.0346617703611471
-0.0126556123465301
-0.00233814042879037
0
0
0
0
0.00289674665492962
0.00833419603333054
0.00833419603333054
0.0166683920666611
0.0187525307685906
0.0208354900833263
0.0208354900833263
0.024393721828868
0.0291696861166569
0.0323216138857288
0.0333367841333221
0.0333367841333221
0.0379628049459185
0.0369923405345515
0.0375565009694777
0.0397379643271094
0.0413172950095855
0.045838078183318
0.045838078183318
0.0416709801666527
0.0416709801666527
0.0416709801666527
0.0416709801666527
0.0461458781168628
0.0521933731535811
0.0501036802429977
0.0559541671938055
0.0546770822361038
0.0583393722333138
0.0583393722333138
0.0644450402982928
0.0708406662833096
0.0666735682666443
0.0691169463342967
0.0750077642999748
0.0770448383911883
0.0791748623166401
0.0808056324312943
0.0833419603333054
0.0875090583499706
0.0875090583499706
0.0916761563666359
0.0970732747302034
0.100010352399966
0.102302607605233
0.108350102641951
0.114397597678723
0.116678744466628
0.122325489735559
0.128372984772277
0.130253381792361
0.139254617125045
0.146515469882552
0.155110401238595
0.162777557972663
0.168825053009493
0.178894077409146
0.186821969465917
0.202532184925729
0.209683425223145
0.218939841669798
0.231034831743235
0.243129821816671
0.24323943427723
0.25898560593045
0.271080596003887
0.281185576597005
0.287233071633785
0.293280566670503
0.302792164231209
0.313709752777304
0.319757247814107
0.32163764483416
0.327685139870882
0.32539843887428
0.329200743316556
0.329200743316556
0.325522970080575
0.320866547283226
0.319433964641676
0.310073489943354
0.296952221204927
0.278809736094772
0.260047276295712
0.238357667857442
0.215834414018632
0.191644433871758
0.171428918476643
0.147431571594204
0.123241591447331
0.104500169096167
0.0863576839857421
0.0732574526947695
0.0584069097986774
0.0444315227051879
0.0286382864409885
0.0207729422337201
0.0147254471970019
0.0086779521602836
0.00263045712352167
-0.00341703791327136
-0.00529743493332435
-0.00833419603333054
-0.00833419603333054
-0.0109386259936018
-0.0125012940499958
-0.0081050420825719
-0.00824562102043022
-0.0107094720427247
-0.00833419603333054
-0.0138868120807076
-0.0166683920666611
-0.0125012940499958
-0.0153609051243198
-0.0166683920666611
-0.0191216991644276
-0.0208354900833263
-0.0208354900833263
-0.0208354900833263
-0.0208354900833263
-0.0208354900833263
-0.0208354900833263
-0.0177206978949459
-0.0250025880999916
-0.0222940998880935
-0.0291696861166569
-0.0268675018812766
-0.0291696861166569
-0.0291696861166569
-0.0291696861166569
-0.0250025880999916
-0.0216326147975584
-0.0197522177774747
-0.0166683920666611
-0.0215124584127082
-0.0224452227505567
-0.0208354900833263
-0.0208354900833263
-0.0168040316902774
-0.0184131494630977
-0.0208354900833263
-0.0208354900833263
-0.0208354900833263
-0.0125012940499958
-0.0153138405134853
-0.0208354900833263
-0.0184292475962777
-0.0126208355404322
-0.0186683305771504
-0.0169551545526737
-0.0166683920666611
-0.0166683920666611
-0.0125012940499958
-0.0125012940499958
-0.0117202674689456
-0.0109956196344338
-0.0170431146711627
-0.0185803704586639
-0.0166683920666611
-0.0148195764185561
-0.0162305067181538
-0.0166683920666611
-0.0166683920666611
-0.0166683920666611
-0.0166683920666611
-0.0172982957853251
-0.0208354900833263
-0.0166683920666611
-0.0187723888288188
-0.0208354900833263
-0.0267002808857103
-0.0291696861166569
-0.0250025880999916
-0.0250025880999916
-0.0250025880999916
-0.02223710624722
-0.0208354900833263
-0.0208354900833263
-0.0249301112202731
-0.0227883639830978
-0.0288358590198179
-0.0234560181767336
-0.0208354900833263
-0.0250025880999916
-0.0219819251331654
-0.0174023540368958
-0.0208354900833263
-0.0208354900833263
-0.0186274350695003
-0.0166683920666611
-0.0232008370626045
-0.0208354900833263
-0.0208354900833263
-0.0208354900833263
-0.0198463469989394
-0.0166683920666611
-0.0166683920666611
-0.0191316281945417
-0.0206589549519395
-0.0187253242181009
-0.0208354900833263
-0.019184861908444
-0.0201994172616968
-0.0208354900833263
-0.0239602113018209
-0.0208354900833263
-0.0208354900833263
-0.0208354900833263
-0.0162112635523338
-0.0208609023522103
-0.0250025880999916
-0.0212163817908832
-0.0208354900833263
-0.0208354900833263
-0.0125012940499958
-0.0214220891183207
-0.0236287933809996
-0.0192356864462101
-0.0208354900833263
-0.0229964804864345
-0.0250025880999916
-0.0267572745265405
-0.0291696861166569
-0.027821303666547
-0.0217738086298287
-0.0291696861166569
-0.0291696861166569
-0.0291696861166569
-0.0267535145994923
-0.0248731175794393
-0.0208354900833263
-0.0286160192048641
-0.0317332205691577
-0.0256857255324394
-0.0261998476875968
-0.0291696861166569
-0.0250025880999916
-0.027673940731209
-0.0287850344820409
-0.0250025880999916
-0.0332934794496506
-0.0337863927935492
-0.0254305444183867
-0.0291696861166569
-0.0291696861166569
-0.0291696861166569
-0.0262431523713831
-0.0256424208487697
-0.0266494563478239
-0.0210690188555452
-0.0228886623077179
-0.016841167270888
-0.0166683920666611
-0.0202564109025451
-0.0237012702607181
-0.0208354900833263
-0.0258976019628243
-0.0263942752337693
-0.0250025880999916
-0.022633481193596
-0.0292520920264895
-0.0333367841333221
-0.0294935841833836
-0.0307261850700293
-0.0298998881598244
-0.0333367841333221
-0.03030619213638
-0.032592893132973
-0.0265453980961556
-0.0333367841333221
-0.0333367841333221
-0.0333367841333221
-0.0375038821499874
-0.0375038821499874
-0.0360985060590455
-0.0300510110223254
-0.0333367841333221
-0.0304573149987662
-0.0291696861166569
-0.0291696861166569
-0.0333367841333221
-0.0333367841333221
-0.0293895259317152
-0.0333367841333221
-0.0297958299081739
-0.0250025880999916
-0.0250025880999916
-0.0208354900833263
-0.0235638363554551
-0.0250025880999916
-0.0226805458043812
-0.0167037333656573
-0.0227512284024319
-0.0250025880999916
-0.0208354900833263
-0.0242253214459914
-0.0155652617005787
-0.0214518762086686
-0.0194418373041061
-0.0176557408693257
-0.0208354900833263
-0.0208354900833263
-0.0127328571767758
-0.0142659095066607
-0.0166683920666611
-0.00969250751355454
-0.0189787110505461
-0.0198834825796616
-0.0138359875429415
-0.0177597991211088
-0.0250025880999916
-0.0250025880999916
-0.0229827915292722
-0.0247356836742115
-0.023389095505713
-0.0173416004689929
-0.0208354900833263
-0.0208354900833263
-0.0250025880999916
-0.0223213064386583
-0.0166683920666611
-0.0166683920666611
-0.0125130173617175
-0.0166683920666611
-0.0166683920666611
-0.0179107506195416
-0.00581576054610882
-0.0146134255606619
-0.0178990273079421
-0.0131510558287881
-0.0166683920666611
-0.0125012940499958
-0.0146251488723836
-0.0126641402241046
-0.0100517468792775
-0.0160992419159976
-0.0111900471806081
-0.00514255214379731
0
-0.00278533991300167
0
0
0
0.00197273196000154
0.000313969036612582
0
0
0.00300697400966385
-0.00304052102705256
-0.0090880160637941
-0.0151355111006075
-0.0166683920666611
-0.0166683920666611
-0.0166683920666611
-0.0125012940499958
-0.0162033001676659
-0.00691889091227452
-0.00416709801666527
-0.00416709801666527
-0.00416709801666527
0
-0.00496618837622147
-0.00833419603333054
-0.00833419603333054
-0.0122913832650516
-0.0149979058315505
-0.0125012940499958
-0.0220996723419961
-0.0250025880999916
-0.0199776118012159
-0.0194066673689005
-0.0208354900833263
-0.0231674614090508
-0.0249120474417635
-0.0147427247174411
-0.00869522968065732
-0.0140206574227202
-0.0166683920666611
-0.0125012940499958
-0.0154947504663342
-0.00833419603333054
-0.00574704359355145
-0.00416709801666527
-0.00198624955332703
0
-0.00416709801666527
-0.000512156509835166
-0.00410472153101434
-0.0125012940499958
-0.00192387306755767
-0.0140188631409905
-0.0219467551980023
-0.0218615973844784
0.00923016751800279
0.047544863339157
0.0898773285969758
0.150284519633729
0.246421048333328
0.423022154838543
0.634536946827684
0.807041053263158
0.946798512761546
0.987563723459475
0.733829082582646
0.366814076644603
0.13720702935163
-0.00433932888665943
-0.0755073608382235
-0.0916761563666359
-0.10010723352509
-0.112511646449962
-0.109004239242303
-0.104891382962779
-0.0870022846850765
-0.0706397269066325
-0.0344072041420818
-0.00731885442181263
0.00721575379223181
0.0179895679661629
0.0208354900833263
0.0217503620063873
0.0277978570431074
0.0250025880999916
0.0250025880999916
0.0291696861166569
0.0311523471067725
0.0333367841333221
0.0307460431302581
0.0367935381670481
0.0375038821499874
0.0436047822643282
0.045838078183318
0.0484822242640475
0.045838078183318
0.0480759202874882
0.0500051761999832
0.0495011544387768
0.0578842093644327
0.0583393722333138
0.0616450034045387
0.0583393722333138
0.0612386994280979
0.0660609420684743
0.062506470249979
0.0666735682666443
0.0666735682666443
0.0706406845284794
0.0691602510180848
0.0737951928374058
0.0750077642999748
0.0781622726088136
0.0758755716121994
0.0791748623166401
0.0796363656524239
0.0880257610449826
0.0916761563666359
0.0936117527459702
0.0958432543833012
0.0916761563666359
0.0950858457895292
0.100010352399966
0.100010352399966
0.107627863983459
0.106774531886525
0.120845842483293
0.114273510002936
0.112415722946804
0.120845842483293
0.117180971946345
0.130558208057076
0.136605703093796
0.145848430583284
0.145848430583284
0.150581090187402
0.154182626616615
0.158508982244173
0.166596131911841
0.174771070334386
0.186619014042285
0.198714004115726
0.205414849494546
0.211462344531354
0.222497680286273
0.231891530638151
0.238353464399815
0.250448454473386
0.258376346530267
0.272359868372261
0.286733424693805
0.289011990942024
0.295059485978744
0.305274079032126
0.30836525323323
0.321536167122247
0.322483628440716
0.325560277025013
0.337655267098454
0.341702037366552
0.341702037366552
0.341702037366552
0.341702037366552
0.338490535416881
0.323184043393541
0.31669944926656
0.305254271373513
0.276165983143022
0.266245501065863
0.244048110939227
0.225905625829066
0.197842658641736
0.177119361558406
0.153629796364362
0.126379437130197
0.106797192251912
0.0893940519565919
0.0659388200381853
0.053843829964745
0.0417488398913122
0.0296538498176351
0.0175588597442023
0.00833419603333054
0.00833419603333054
0
0
-0.00895675126161835
-0.0150042462983348
-0.017100894570355
-0.0270992363718897
-0.021215595532751
-0.0250025880999916
-0.0285733294154868
-0.0291696861166569
-0.0291696861166569
-0.026758060784669
-0.0333367841333221
-0.0254740204658895
-0.0291696861166569
-0.0291696861166569
-0.0291696861166569
-0.0253437636870939
-0.0265418095329442
-0.0291696861166569
-0.0261355055564171
-0.0321830005932235
-0.0333367841333221
-0.0359437946333295
-0.0336570936367281
-0.0375038821499874
-0.0334227786063661
-0.031542381586315
-0.0291696861166569
-0.0291696861166569
-0.0291696861166569
-0.0301514807106639
-0.0276124009051983
-0.0250025880999916
-0.0274584757376127
-0.0331675974923152
-0.0271201024555951
-0.0250025880999916
-0.0308129658012778
-0.0333367841333221
-0.0333367841333221
-0.0333367841333221
-0.0366732104183629
-0.0333367841333221
-0.0375038821499874
-0.0351991173748055
-0.0333367841333221
-0.0333367841333221
-0.0371156419520525
-0.0318446273111635
-0.0325422399589464
-0.036418029304312
-0.0363030339990524
-0.0375038821499874
-0.0375038821499874
-0.0416709801666527
-0.0395173382539226
-0.0375038821499874
-0.040998558022566
-0.0422103432269775
-0.0360188520527822
-0.0416709801666527
-0.0375038821499874
-0.0375038821499874
-0.0416709801666527
-0.0416709801666527
-0.0375038821499874
-0.0355013630996435
-0.0372197002037209
-0.0384785500189928
-0.03681339622728
-0.0446481670859742
-0.0416709801666527
-0.0408873730458459
-0.0401678862909452
-0.0416709801666527
-0.0439286803310512
-0.0416999809988683
-0.039355278337945
-0.0379391869586439
-0.0375038821499874
-0.0408293713814406
-0.0406321919316952
-0.0404230674049998
-0.0404060116498562
-0.0333367841333221
-0.0372777018680263
-0.0333367841333221
-0.0333367841333221
-0.0358036088245345
-0.0333367841333221
-0.0387978514989995
-0.0416709801666527
-0.0333367841333221
-0.0388729089184948
-0.045838078183318
-0.045838078183318
-0.0500051761999832
-0.0500051761999832
-0.0461693247403024
-0.045838078183318
-0.045838078183318
-0.0405281336801128
-0.0435503691633488
-0.0492686336899167
-0.045838078183318
-0.0413407416331323
-0.039714517703668
-0.0457620127403881
-0.0398666485895314
-0.0411886107471636
-0.0416709801666527
-0.0416709801666527
-0.0416709801666527
-0.0416709801666527
-0.045838078183318
-0.045838078183318
-0.0460171938544427
-0.0479456635088073
