-0.0625075932450379
-0.0540132831166103
-0.049113108978244
-0.049113108978244
-0.0563013809581622
-0.0568987162353554
-0.0535779370671753
-0.0566253594135145
-0.049113108978244
-0.0446482808893128
-0.0492244765724412
-0.0535779370671753
-0.0517251852751606
-0.049113108978244
-0.049113108978244
-0.049113108978244
-0.049113108978244
-0.049113108978244
-0.0535779370671753
-0.0535779370671753
-0.0535779370671753
-0.0535779370671753
-0.0535779370671753
-0.0580427651561066
-0.0580427651561066
-0.0580427651561066
-0.0547726076215338
-0.052757866601809
-0.0462782974931869
-0.0494978333940608
-0.0511784716315995
-0.049113108978244
-0.0535779370671753
-0.0495990766613995
-0.0492346008990494
-0.0544992507997534
-0.0468351354635383
-0.0535779370671753
-0.0542360183047572
-0.0580427651561066
-0.0535779370671753
-0.0513404608593439
-0.049113108978244
-0.0509152391366528
-0.0535779370671753
-0.0477463248693848
-0.0446482808893128
-0.0392520147409449
-0.0357186247114502
-0.048617016968357
-0.0446482808893128
-0.0447090268497772
-0.049113108978244
-0.049113108978244
-0.0458328271170326
-0.0292188069491802
-0.016654517474542
-0.0133944842667938
-0.00446482808893128
-0.00446482808893128
-0.00446482808893128
-0.00681367189083308
-0.0132932409994551
-0.0153079820192003
-0.0217875511278951
-0.0282671202365173
-0.0242680111772781
-0.0189021180091347
-0.0253816871178542
-0.0261815089296303
-0.0249463410683046
-0.0267889685335877
-0.0289758231078132
-0.0270522010286025
-0.0312537966225189
-0.0312537966225189
-0.0325699590977723
-0.0357186247114502
-0.0401834528003815
-0.0372878953549868
-0.0406289231766626
-0.0446482808893128
-0.0535880613939069
-0.0560178998096841
-0.0535779370671753
-0.0551674563641752
-0.0580427651561066
-0.0580427651561066
-0.0580427651561066
-0.0498319361762717
-0.0563115052848938
-0.0535779370671753
-0.0512797148988794
-0.049113108978244
-0.049113108978244
-0.049113108978244
-0.0505406390475677
-0.0501356659781607
-0.0446482808893128
-0.0446482808893128
-0.0452051188596642
-0.049113108978244
-0.0446482808893128
-0.0403758150083273
-0.0440205726320534
-0.0508139958693142
-0.0572935649779364
-0.0300591260682172
0.011936581217592
0.0565848621071256
0.120590855708301
0.203954562021394
0.353571862471902
0.574504920424661
0.768193415138351
0.91821568865638
0.990888105940741
0.838294253429795
0.463947272504765
0.166332563884611
0.00203498967345918
-0.0920200056702765
-0.138642530271742
-0.151864900984053
-0.182045518972795
-0.17678086907211
-0.17412829546832
-0.152138257805822
-0.132699550479955
-0.0970416717284095
-0.0611205604825357
-0.0341999757015941
-0.0198031830883468
-0.0133236139795977
-0.0047584335640888
-0.00410035232657777
-0.00727939092052517
-0.00446482808893128
-0.00446482808893128
-0.00123516786132571
0
0
0.00858542906892009
0.00446482808893128
0.00446482808893128
0.0172417284250709
0.0183857773457547
0.0208358644150474
0.0267889685335877
0.0267889685335877
0.0329243105334463
0.03063621269183
0.0294212934839675
0.0357186247114502
0.033521645810493
0.0312537966225189
0.0267889685335877
0.0305653424046862
0.0343923379094653
0.0312537966225189
0.0357186247114502
0.0357186247114502
0.0401834528003815
0.0377131170776779
0.0402239501073079
0.0511480986513981
0.0576276677601353
0.0459138217307812
0.0437978374438038
0.0458125784634947
0.0522921475722072
0.0535779370671753
0.0563216296116254
0.0583363706313248
0.0648159397400653
0.0669724213339691
0.0688454217794471
0.0753249908880692
0.0862693880857496
0.0858441663628793
0.0848317336896942
0.0878487830558909
0.0943283521646398
0.0956445146397142
0.0938930061150904
0.100372575223712
0.106852144332453
0.115042724658885
0.120550358401144
0.130755679747259
0.140525655044011
0.149019965172391
0.156268983112595
0.166008585429017
0.178967723646399
0.183057951646182
0.191987607824045
0.195986716883284
0.208480136070924
0.221439274288334
0.226592556594919
0.229498238367097
0.242457376584381
0.252723443890996
0.250273356821755
0.261268375652967
0.267889685335877
0.27417689223668
0.280656461345302
0.28128416960267
0.291489490948711
0.289262139067633
0.291681853156783
0.294162313206114
0.287682744097492
0.281203174988743
0.274723605880121
0.26002308346488
0.248369983396082
0.238215283683492
0.219566273842625
0.203367351071096
0.184363989794727
0.155641274855052
0.137346616449847
0.115538816668616
0.094004373709183
0.0764994127890223
0.0674887619972672
0.0535475640869283
0.0305957153849787
0.0201980318309094
0.00723889361347196
0
-0.00528489855422289
-0.00892965617786255
-0.0111367594055512
-0.0218381727615531
-0.0223241404446564
-0.0261106386424865
-0.0281253796623042
-0.0379561009193335
-0.0401834528003815
-0.0401834528003815
-0.0401834528003815
-0.0451443728992519
-0.049113108978244
-0.0470679949783581
-0.0446482808893128
-0.0475033410277812
-0.0373992629490045
-0.0425322966022083
-0.0523022718989388
-0.0535779370671753
-0.0535779370671753
-0.0535779370671753
-0.0535779370671753
-0.0449115133842758
-0.0509962337504538
-0.0496800712752748
-0.0476653302554569
-0.0446482808893128
-0.0446482808893128
-0.0446482808893128
-0.0446482808893128
-0.0446482808893128
-0.0489713684039787
-0.0403353177014006
-0.0357186247114502
-0.0312537966225189
-0.0275179200582947
-0.0401834528003815
-0.0335823917708443
-0.0357186247114502
-0.0357186247114502
-0.0438180860972894
-0.0332887862956785
-0.0356983760580393
-0.0357186247114502
-0.0357186247114502
-0.0357186247114502
-0.0357186247114502
-0.0390596525330737
-0.0325800834244517
-0.0357186247114502
-0.0357186247114502
-0.0354655165431148
-0.0312537966225189
-0.0312537966225189
-0.0312537966225189
-0.0312537966225189
-0.0340481108006272
-0.0367715546916363
-0.0312537966225189
-0.0312537966225189
-0.0278418985137517
-0.0408010367309958
-0.0400923338597223
-0.0336127647511
-0.0353743976025599
-0.038512938889581
-0.032033369780854
-0.0312537966225189
-0.0345037055035878
-0.0320536184343473
-0.0357186247114502
-0.0401834528003815
-0.0401834528003815
-0.0401834528003815
-0.0318308832462455
-0.0228303567812229
-0.0238326651277809
-0.0267889685335877
-0.0278621471671929
-0.0374296359293043
-0.0433726157210084
-0.0357186247114502
-0.0444457943547043
-0.0379662252459611
-0.0441825618596729
-0.0384015712955106
-0.0357186247114502
-0.0401834528003815
-0.0401834528003815
-0.0401834528003815
-0.043109383225971
-0.049113108978244
-0.0466225246020771
-0.0446077835823863
-0.0381282144737643
-0.0397886040578741
-0.0446482808893128
-0.0446482808893128
-0.0401834528003815
-0.0401834528003815
-0.0446482808893128
-0.0418843396913995
-0.0401834528003815
-0.0401834528003815
-0.0401834528003815
-0.0420767018993227
-0.0407402907706808
-0.0401834528003815
-0.0367108087311721
-0.0357186247114502
-0.0387559227311101
-0.0395962418498349
-0.0357186247114502
-0.0401834528003815
-0.0423500587210693
-0.0446482808893128
-0.0463795407605777
-0.045367108087288
-0.0414793666220967
-0.0446482808893128
-0.0410440205726744
-0.0475235896812967
-0.0442230591665696
-0.0450633782853885
-0.0446584052159919
-0.0421880694933928
-0.0486676386020151
-0.049113108978244
-0.049113108978244
-0.0446482808893128
-0.0446482808893128
-0.0446482808893128
-0.0446482808893128
-0.0446482808893128
-0.0446482808893128
-0.0403555663548641
-0.0375612521767856
-0.0401834528003815
-0.0357186247114502
-0.0357186247114502
-0.0401834528003815
-0.0401834528003815
-0.039646863483568
-0.0357186247114502
-0.0447495241567034
-0.0469971246911623
-0.04051755558254
-0.0429676426517808
-0.0401834528003815
-0.0401834528003815
-0.0369234195925813
-0.0365285708500101
-0.0430081399587127
-0.0398088527112439
-0.0381079658202783
-0.0445875349289006
-0.0471591139189097
-0.0446482808893128
-0.049113108978244
-0.049113108978244
-0.048029806017907
-0.0446482808893128
-0.0446482808893128
-0.0419855829587383
-0.0406086745230619
-0.0513404608593961
-0.0535779370671753
-0.0553699428987776
-0.0542360183048132
-0.0535779370671753
-0.0502065362653048
-0.049113108978244
-0.0461770542259228
-0.0535779370671753
-0.0485765196613785
-0.0447495241566291
-0.0535779370671753
-0.0494978333940196
-0.0474830923743177
-0.0482930385129301
-0.049113108978244
-0.0459036974040852
-0.0394241282954272
-0.0384926902360955
-0.0401834528003815
-0.0401834528003815
-0.0445369132952949
-0.0408415340379674
-0.0357186247114502
-0.0357186247114502
-0.0392013931073911
-0.0367513060381508
-0.0371360304539899
-0.0363159599886181
-0.0375713765034127
-0.0357186247114502
-0.0378953549588693
-0.0401834528003815
-0.0401834528003815
-0.0401834528003815
-0.0401834528003815
-0.0435042319686139
-0.049113108978244
-0.0462276758595289
-0.043777588790363
-0.0332685376422152
-0.0267889685334836
-0.013829830316239
-0.00892965617786255
-0.00288543311869306
0
-0.00446482808893128
-0.00446482808893128
-0.0110557647915867
-0.0223241404446564
-0.0223241404446564
-0.0223241404446564
-0.0266269793058368
-0.0223241404446564
-0.026191633256414
-0.0312537966225189
-0.0312537966225189
-0.0312537966225189
-0.0312537966225189
-0.0307070829789737
-0.0242275138703519
-0.035941359899695
-0.0425221722754993
-0.0401834528003815
-0.0384926902361178
-0.0394241282955102
-0.049113108978244
-0.0458429514437122
-0.0499331794435356
-0.056412748552238
-0.0539626614830441
-0.0556432997205468
-0.0535779370671753
-0.0625075932450379
-0.0664864536508658
-0.0505203903939999
-0.048191795245591
-0.049113108978244
-0.0522212772850999
-0.0535779370671753
-0.0535779370671753
-0.049113108978244
-0.0468756327703607
-0.0446482808893128
-0.0464504110476468
-0.0529299801562686
-0.0446482808893128
-0.0514113311465172
-0.0535779370671753
-0.0535779370671753
-0.0496092009881832
-0.0611104361560673
-0.0713157575021216
-0.0500546713645554
-0.00299680071234476
0.0277001579396706
0.0811971003927987
0.154072004211284
0.267282225732564
0.454784756814709
0.666737536953753
0.837808285748204
0.959219211922321
0.93436398979407
0.622524602113548
0.24828898878363
0.0433827400480933
-0.078210424007426
-0.139158870935098
-0.159326529785718
-0.181022961972853
-0.193830235289276
-0.187350666180653
-0.180871097072031
-0.161786741181886
-0.123435791519568
-0.0807921273234144
-0.0514619527802155
-0.0290568177215214
-0.0294921637710062
-0.019428582999209
-0.0138399546430004
-0.0178593123557251
-0.0133944842667938
-0.011369618920319
-0.00892965617786255
-0.00734013688089182
-0.00446482808893128
0.00115417324750271
0.00446482808893128
0.00518365528690468
0.00892965617786255
0.0133944842667938
0.015692706435015
0.0264852387315494
0.0286518446523865
0.0312537966225189
0.0312537966225189
0.034696067711459
0.0357186247114502
0.0387255497509674
0.0440914429190358
0.0401834528003815
0.049113108978244
0.0469768760376989
0.0446482808893128
0.0446482808893128
0.0446482808893128
0.049113108978244
0.049113108978244
0.0535779370671753
0.0535779370671753
0.0584376138987076
0.0649171830073294
0.0713967521159517
0.0734114931356988
0.0759020775118317
0.0729761470862199
0.0759020775118317
0.0770056291256327
0.0772486129671753
0.0848317336896942
0.0794658405216185
0.0719029684525089
0.0826145061353785
0.0805693921353882
0.0929210707487571
0.0943992224517312
0.0951382983031998
0.0982262179564881
0.109038998906538
0.116085530312213
0.121056574737815
0.127536143846438
0.129480014579007
0.133651237192631
0.142510023083489
0.14617502936058
0.162799173854904
0.169663467379388
0.172893127607011
0.180152269874085
0.19311140809133
0.201605718219643
0.212205888308396
0.218685457417078
0.231553476693767
0.240574251812185
0.242588992831918
0.249068561940625
0.256601061029411
0.2664925282468
0.27297209735544
0.279451666464171
0.285931235572793
0.290213825780533
0.290213825780533
0.296440286720924
0.299143481958395
0.296004940671375
0.299143481958395
0.285748997691602
0.285748997691602
0.275908152107862
0.260478678167779
0.241039970841742
0.219566273842669
0.197697728101079
0.178259020775076
0.158820313448964
0.134916778034168
0.115478070708301
0.0960393633823718
0.07934434860069
0.0613331713439904
0.0377232414044541
0.026930709107875
0.0204511399991263
0.013971570890504
-0.0014376543959808
-0.0113696189202739
-0.019863929048841
-0.0298060178998366
-0.0318207589195272
-0.0383003280281494
-0.0401834528003815
-0.0401834528003815
-0.0443445510873489
-0.0463592921070399
-0.0528388612157676
-0.0535779370671753
-0.05028753087918
-0.049113108978244
-0.049113108978244
-0.0487081359089118
-0.047067994978336
-0.0579820191956716
-0.0471287409387141
-0.0526464990078956
-0.0475640869881934
-0.0482120438990544
-0.0424209290082466
-0.0419754586320879
-0.0535779370671753
-0.0535779370671753
-0.0580427651561066
-0.0557850402947598
-0.0578504029482131
-0.0535779370671753
-0.0535779370671753
-0.05496496982955
-0.0512392175919752
-0.049113108978244
-0.0461466812457281
-0.049113108978244
-0.049113108978244
-0.0447292755031656
-0.0554003158788757
-0.0583971165916866
-0.0535779370671753
-0.0572530676709874
-0.0535779370671753
-0.0535779370671753
-0.0543676345523243
-0.0580427651561066
-0.0539322885027745
-0.0580427651561066
-0.0492750982058903
-0.0529806017899788
-0.0580427651561066
-0.0535779370671753
-0.0535779370671753
-0.0601688737698972
-0.0608168306807965
-0.0580427651561066
-0.0554003158789431
-0.0582351273640298
-0.0603004900174241
-0.0580427651561066
-0.049113108978244
-0.0528996071761264
-0.0567063540274649
-0.0535779370671753
-0.0571417000768873
-0.0535779370671753
-0.057577046126437
-0.0560583971165359
-0.0669724213339691
-0.0649273073340314
-0.0584477382254091
-0.0580427651561066
-0.0580427651561066
-0.0580427651561066
-0.0580427651561066
-0.0573036893046696
-0.059085570809644
-0.0663649617299819
-0.0580427651561066
-0.0667091888388579
-0.0650892965617074
-0.0664054590369902
-0.0655246426112566
-0.0659701129874409
-0.0714372494229004
-0.065382902036939
-0.0630846798687778
-0.0669724213339691
-0.0669724213339691
-0.0669724213339691
-0.0628011987202705
-0.068693556878428
-0.0714372494229004
-0.0714372494229004
-0.0714372494229004
-0.0705868059774141
-0.0698376057992284
-0.0669724213339691
-0.0694022597497236
-0.0669926699874544
-0.0689669137002311
-0.0714372494229004
-0.0729963957396833
-0.0687543028388849
-0.0658486210667045
-0.0593690519579868
-0.0625075932450379
-0.059804398007537
-0.0630138095815744
-0.0714372494229004
-0.0671546592151314
-0.0669724213339691
-0.0631251771757494
-0.0625075932450379
-0.0625075932450379
-0.0679342323735258
-0.0714372494229004
-0.0664459563438348
-0.0650487992548627
-0.066881302393385
-0.0604017332847622
-0.0580427651561066
-0.0597132790669589
-0.0661928481755816
-0.0625075932450379
-0.0625075932450379
-0.0617077714331572
-0.0580427651561066
-0.0625075932450379
-0.0625075932450379
-0.0625075932450379
-0.0689162920665688
-0.0714372494229004
-0.0714372494229004
-0.0714372494229004
-0.0714372494229004
-0.0714372494229004
-0.0669724213339691
-0.0696249949378644
-0.0669724213339691
-0.0669724213339691
-0.0669724213339691
-0.0625075932450379
-0.066304215769652
-0.0611610577896644
-0.0580427651561066
-0.0669724213339691
-0.0669724213339691
-0.0714372494229004
-0.0739278337989928
-0.080285910986806
-0.0693820110962314
-0.0710424006803296
-0.0759020775118317
-0.0759020775118317
-0.080366905600763
-0.077167618353375
-0.0721864496010699
-0.0786660187097973
-0.0797391973433133
-0.0691086542744841
-0.071315757502076
-0.0733304985218934
-0.0759020775118317
-0.0789090025513192
-0.0759020775118317
-0.0783217916007201
-0.0714372494229004
-0.0791924836998206
-0.066233345482575
-0.067124286235018
-0.069270643502161
-0.0711537682744
-0.0714372494229004
-0.0714372494229004
-0.0759020775118317
-0.0759020775118317
-0.0750415097396141
-0.0685619406309096
-0.0714372494229004
-0.0689972866804147
-0.0669724213339691
-0.0689770380269626
-0.0674178917101465
-0.0625075932450379
-0.0625075932450379
-0.0613736686510417
-0.0548940995423243
-0.0542765156117169
-0.0580427651561066
-0.0538411695621751
-0.0603207386709163
-0.0625075932450379
-0.0580427651561066
-0.0541853966711546
-0.0535779370671753
-0.0535779370671753
-0.0526060017008864
-0.0461264325922646
-0.0451848702061783
-0.049113108978244
-0.0445470376219964
-0.0401834528003815
-0.0443141781071972
-0.0446482808893128
-0.0446482808893128
-0.0446482808893128
-0.0446482808893128
-0.0446482808893128
-0.0418235937310093
-0.0401834528003815
-0.0425727939092036
-0.0446482808893128
-0.0337646296521193
-0.0352225327015413
-0.0357186247114502
-0.0392520147410492
-0.0401834528003815
-0.0401834528003815
-0.0350706678006227
-0.0312537966225189
-0.0267889685335877
-0.0223342647714332
-0.00937512655418764
-0.00713765034620768
-0.000658081237585881
0.00135665978210464
0.00783622889072743
0.00354351435624898
0
0
-0.00250070870282357
-0.00441420645522057
0
0
0
-0.0036447576236461
-0.0077349856234339
-0.00446482808893128
-0.00892965617786255
-0.00892965617786255
-0.00892965617786255
-0.0112683756530101
-0.0133944842667938
-0.0152978576925191
-0.0178593123557251
-0.0178593123557251
-0.0213420807515916
-0.0223241404446564
-0.0284189851375427
-0.0401834528003815
-0.0375713765034875
-0.0358806139392303
-0.0445369132953247
-0.0449216377110819
-0.0401834528003815
-0.0401834528003815
-0.0357186247114502
-0.0357186247114502
-0.0357186247114502
-0.0357186247114502
-0.039748106750855
-0.0357186247114502
-0.0357186247114502
-0.0361539707609295
-0.0272243145830328
-0.0328331915927643
-0.0357186247114502
-0.0323978455432476
-0.0388774146519638
-0.0394747499291077
-0.0357186247114502
-0.0451949945327754
-0.0558660349087173
-0.0537399262948741
-0.0164317822865851
0.0276697849590307
0.0590349491762297
0.128416960272402
0.228506054347153
0.387579475963495
0.610770258779361
0.793706718503649
0.93437411412116
0.954622767586286
0.733740331265599
0.349633499370846
0.0905114809866445
-0.0513404608587829
-0.132122463856369
-0.161553881666869
-0.179372696715631
-0.209077471348182
-0.1961183331308
-0.187573401368742
-0.172700765399065
-0.141325476855936
-0.102448062203944
-0.0742011906207034
-0.0558559105819256
-0.042896772364682
-0.0261308872960287
-0.0223241404446564
-0.0263434981573518
-0.0178593123557251
-0.0136070951282251
-0.016057182197339
-0.0133944842667938
-0.0133944842667938
-0.0100129591382664
-0.00892965617786255
-0.0118758352569676
-0.00396873607906699
0
0
0.00207548698013247
0.00446482808893128
0
0.00365488195037762
0
0.0032195359008514
0.00523427692054192
0.00892965617786255
0.0178593123557251
0.0178593123557251
0.0222228971772944
0.0178593123557251
0.0178593123557251
0.0208459887417491
0.0178593123557251
0.0199449236626929
0.0267889685335877
0.0312537966225189
0.0312537966225189
0.0357186247114502
0.0357186247114502
0.0315170291175568
0.0374701332361038
0.0401834528003815
0.045964443364543
0.049113108978244
0.049113108978244
0.0462175515327902
0.0495585793545027
0.0584983598590737
0.0669724213339691
0.0649475559875116
0.0625075932450379
0.0774915968088083
0.0767626452840948
0.0815210788482231
0.0848317336896942
0.0855505608876993
0.0920301299963211
0.102691046045419
0.104989268213693
0.115781800510278
0.122413234519869
0.132770420766905
0.135372372737239
0.145294212934856
0.152796339043415
0.159275908152037
0.17524197140898
0.185629530636202
0.187644271655892
0.194123840764516
0.200603409873255
0.213248693961864
0.222492204268372
0.228971773376993
0.235451342485708
0.236635888713358
0.242325760336889
0.255284898554133
0.265834447009231
0.267889685335877
0.26986392904867
0.276343498157294
0.279745271939383
0.280372980196801
0.28128416960267
0.278165876969158
0.271018102296227
0.260741910662854
0.253796622524535
0.23435791519867
0.219181549427031
0.191855991576321
0.170939132547635
0.15522617745925
0.129307901024766
0.112319280767626
0.0893573077389763
0.0783420402543809
0.0524237638198857
0.0355768841371019
0.0226177459198602
0.0137589600291689
0.00116429757430037
-0.0117948406431496
-0.0202891507715113
-0.0267889685335877
-0.0275685416919295
-0.0340481108006327
-0.040527679909302
-0.0446482808893128
-0.0446482808893128
-0.0465719029684292
-0.0530514720771223
-0.0506013850078964
-0.0516543149879727
-0.065919491353851
-0.0594399222451302
-0.0586603490867735
-0.0598752682946814
-0.0582250030373511
-0.0603106143441028
-0.0622544850767312
-0.0669724213339691
-0.0631960474627855
-0.0625075932450379
-0.0591665654233839
-0.0633985339974511
-0.0640667395617818
-0.0634187826510196
-0.068966913700219
-0.0580630138095482
-0.0645425829182279
-0.0588729599480699
-0.0580427651561066
-0.0544283805127062
-0.060371360304492
-0.0637933827399911
-0.0580427651561066
-0.0580427651561066
-0.0577491596809102
-0.0558862835621807
-0.0580427651561066
-0.0554509375126315
-0.0619305066212533
-0.0625075932450379
-0.0625075932450379
-0.0635099015915215
-0.0669724213339691
-0.0669724213339691
-0.0669724213339691
-0.0625075932450379
-0.0625075932450379
-0.0583464949580265
-0.0642186044628171
-0.055795164621557
-0.0548536022354053
-0.0580427651561066
-0.0588830842749142
-0.0625075932450379
-0.0625075932450379
-0.0600878791560202
-0.0580427651561066
-0.0580427651561066
-0.0620418742153237
-0.0640566152350582
-0.0705361843437639
-0.0703235734823464
-0.0701008382942136
-0.0662940914429451
-0.0598145223342157
-0.058285748997688
-0.0647653181063108
-0.0669724213339691
-0.0669724213339691
-0.0669724213339691
-0.0728242821852007
-0.0759020775118317
-0.0714372494229004
-0.0714372494229004
-0.0709209087595727
-0.0669724213339691
-0.0669724213339691
-0.0648766857003732
-0.0625075932450379
-0.0636516421658758
-0.0580427651561066
-0.0625075932450379
-0.0625075932450379
-0.0588324626411817
-0.0625075932450379
-0.0583971165917583
-0.0625075932450379
-0.0581237597700041
-0.0669724213339691
-0.0669724213339691
-0.0684708216903398
-0.0679241080468392
-0.0669724213339691
-0.0669724213339691
-0.0676001295913673
-0.0687948001458108
-0.0673571457496778
-0.0759020775118317
-0.0632365447697583
-0.0598145223342236
-0.0625075932450379
-0.0593791762848013
-0.0658587453934231
-0.0616065281658934
-0.0638743773539443
-0.0714372494229004
-0.0689567893734878
-0.0669724213339691
-0.0669724213339691
-0.0629125663142883
-0.0625075932450379
-0.0588830842749063
-0.0693212651358176
-0.0727129145911224
-0.0677114971854376
-0.0714372494229004
-0.0711335196209725
-0.0692908921557058
-0.0714372494229004
-0.070738670878344
-0.0759020775118317
-0.0714372494229004
-0.0679747296804448
-0.0635200259182527
-0.0669724213339691
-0.0669724213339691
-0.0669724213339691
-0.0714372494229004
-0.0714372494229004
-0.0756084720366433
-0.0759020775118317
-0.0759020775118317
-0.0669724213339691
-0.0702729518487157
-0.0759020775118317
-0.0701717085813729
-0.0722674442148796
-0.0779370671850138
-0.0759020775118317
-0.0739075851455739
-0.0714372494229004
-0.0654132750172173
-0.0660814805815638
-0.0703134491556152
-0.0669724213339691
-0.0714372494229004
-0.068734054185347
-0.0714372494229004
-0.0714372494229004
-0.0757198396305951
-0.0714372494229004
-0.0752844935811727
-0.0789697485117314
-0.0622544850769394
-0.0733608715021189
-0.0744138014821635
-0.0674988863240291
-0.0714372494229004
-0.0714372494229004
-0.0735431093832286
-0.0800226784918504
-0.0759020775118317
-0.0722168225812575
-0.0771372453731873
-0.080366905600763
-0.0811667274125693
-0.0876462965212711
-0.0848317336896942
-0.0848317336896942
-0.0848317336896942
-0.0867756044222738
-0.0853379500262828
-0.0848317336896942
-0.0883549993924867
-0.0892965617786255
-0.0923844814319956
-0.0892965617786255
-0.0892965617786255
-0.0894990483132114
-0.0937613898675568
-0.0895294212934677
-0.0892965617786255
-0.0892965617786255
-0.0910683189567049
-0.0814704572145778
-0.0759020775118317
-0.0759020775118317
-0.0759020775118317
-0.0808832462641215
-0.0892560644717214
-0.0807212570363881
-0.0799720568582448
-0.0787470133235907
-0.0795367108086945
-0.080366905600763
-0.0771676183533225
-0.0721864496011001
-0.0786660187097229
-0.0755882233831723
-0.0714372494229004
-0.0714372494229004
-0.0695440003239818
-0.0669724213339691
-0.0684303243834654
-0.0714372494229004
-0.0714372494229004
-0.0653626533836252
-0.0669724213339691
-0.0643704693637549
-0.0625075932450379
-0.0646741991657029
-0.0711537682744445
-0.0697059895516577
-0.0669724213339691
-0.0727331632445938
-0.0759020775118317
-0.0705766816506303
-0.0698477301259307
-0.0714372494229004
-0.0738772121653811
-0.0714473737496019
-0.0734418661158894
-0.0678633620864726
-0.0593690519580691
-0.0428259020774037
-0.0357186247114502
-0.0294212934840343
-0.0223241404446564
-0.025037460008941
-0.0267889685335877
-0.029066942048323
-0.0312537966225189
-0.0375612521767632
-0.0363260843153779
-0.037125906127213
-0.0401834528003815
-0.0366905600777907
-0.0431701291864125
-0.0446482808893128
-0.0471996112257945
-0.0535779370671753
-0.0535779370671753
-0.0535779370671753
-0.0552585753046845
-0.0543473858988009
-0.0580427651561066
-0.0645628315716632
-0.0677823674725067
-0.0714372494229004
-0.0673470214230844
-0.0786052727493177
-0.0848317336896942
-0.0739480824525196
-0.0754059855019743
-0.0729558984327336
-0.0794354675413564
-0.074818774551517
-0.0714372494229004
-0.072085206333762
-0.0785647754423838
-0.0801542947394456
-0.0736747256307019
-0.0714372494229004
-0.0651804155023896
-0.0625075932450379
-0.0593994249382638
-0.0692503948487333
-0.0678937350665771
-0.068501194670602
-0.0664864536507845
-0.0575061758392856
-0.0536285587008107
-0.0580427651561066
-0.0621228688292509
-0.0759020775118317
-0.0686125622646416
-0.0318207589196637
0.00390799011882431
0.0425525452558378
0.109190863807301
0.217946381564543
0.396306645609456
0.621066699064916
0.793868707730402
0.931144453892702
0.932167010892398
0.669177499695229
0.287358765642644
0.0502470335734174
-0.0786052727499601
-0.145911796865648
-0.170149435062506
-0.193941602883164
-0.205382092090839
-0.199935204308924
-0.19786984165551
-0.170210181023046
-0.140809136192269
-0.0983375855504127
-0.0659397400072988
-0.0442129348398607
-0.0328331915927448
-0.0223241404446564
-0.0203093994249361
-0.0218887943951359
-0.0223241404446564
-0.0187300044546679
-0.0145385331875415
-0.0147005224152859
-0.00892965617786255
-0.0062062122868457
-0.00419147126715518
0
0
0
0
0
0.00343214676218555
0.00446482808893128
0.00446482808893128
0.000546713643522454
0.00446482808893128
0.00904102377196266
0.0133944842667938
0.017535333900275
0.0195500749199665
0.0223241404446564
0.0191147288705432
0.0255942979791659
0.0223241404446564
0.0251589519296963
0.0312537966225189
0.0312537966225189
0.0312537966225189
0.0351820353946061
0.0441623132061866
0.0446482808893128
0.0446482808893128
0.0446482808893128
0.0477564491961463
0.0497711902158369
0.0562507593244587
0.0625075932450379
0.0647450694528989
0.0669724213339691
0.0687745514922809
0.0676203782448981
0.0652411614628147
0.0748187745514803
0.0812983436601021
0.0877779127687239
0.0902887457984592
0.100737050986095
0.0982262179564881
0.100301704936546
0.106781274045284
0.114900984084551
0.127860122301797
0.13840967075687
0.135190134855966
0.144413396509127
0.157372534726371
0.165866844854702
0.17412829546832
0.178491880289943
0.189436277487496
0.19984408536819
0.20390394038788
0.207903049447206
0.225327015753385
0.235228607297527
0.236635888713358
0.241880289960713
0.250374600089025
0.258960029158014
0.267363220345893
0.272354513424808
0.279887012513601
0.276819341513739
0.283481148503621
0.284868181265867
0.284179727048095
0.285748997691602
0.283288786295657
0.272344389098047
0.263839954642974
0.246841210059582
0.231867330822512
0.212428623496402
0.197454744259468
0.174847122666432
0.154112501518744
0.134673794192554
0.111053739926265
0.0957963795408228
0.0763576722149574
0.0569189648887113
0.0374802575628459
0.0225063783259059
0.00306767100004049
-0.00446482808893128
-0.00747175312842572
-0.0273458065038413
-0.0286822176325727
-0.02691046045442
-0.0355262625035646
-0.0443344267605949
-0.0401834528003815
-0.0401834528003815
-0.0401834528003815
-0.0434637346616233
-0.0499433037702451
-0.0535779370671753
-0.053972785809753
-0.0604523549183748
-0.0625075932450379
-0.0625075932450379
-0.0625075932450379
-0.0625075932450379
-0.066061231928025
-0.0658688697201914
-0.0625075932450379
-0.0669724213339691
-0.0696553679179847
-0.0714372494229004
-0.0714372494229004
-0.0714372494229004
-0.0714372494229004
-0.0714372494229004
-0.0683493297695898
-0.0646539505122781
-0.0669724213339691
-0.0610598145224473
-0.0501255416515421
-0.0605637225124462
-0.0580427651561066
-0.0580427651561066
-0.0539424128295102
-0.0596930304134746
-0.0625075932450379
-0.0612926740372201
-0.0612724253837067
-0.0625075932450379
-0.0597132790669529
-0.0532337099583194
-0.0514720771069076
-0.0579516462155294
-0.0535779370671753
-0.0614546632647831
-0.0610193172153478
-0.0650487992548716
-0.0703843194427586
-0.0669724213339691
-0.0669724213339691
-0.0643400963835602
-0.0669724213339691
-0.0647754424331084
-0.0625075932450379
-0.0625075932450379
-0.0625075932450379
-0.0625075932450379
-0.0625075932450379
-0.0625075932450379
-0.0625075932450379
-0.0669724213339691
-0.0669724213339691
-0.0669724213339691
-0.0649374316607844
-0.0625075932450379
-0.0625075932450379
-0.0625075932450379
-0.0625075932450379
-0.0625075932450379
-0.0580427651561066
-0.0607864577005869
-0.0580427651561066
-0.0603511116510367
-0.0625075932450379
-0.0625075932450379
-0.0625075932450379
-0.0669724213339691
-0.0600676305026711
-0.0590450735026417
-0.0655246426112635
-0.0619406309480529
-0.0580427651561066
-0.0581743814036702
-0.0625075932450379
-0.0625075932450379
-0.060796582027334
-0.0617685173936069
-0.0669724213339691
-0.0636820151459961
-0.0669724213339691
-0.0641173611954652
-0.0625075932450379
-0.0649273073340373
-0.0625379662252772
-0.0644919612845455
-0.0629733122747005
-0.0535779370671753
-0.0571417000768937
-0.0569290892155953
-0.0535779370671753
-0.0593994249382192
-0.0669724213339691
-0.0627505770865508
-0.0669724213339691
-0.0626999554529532
-0.0643299720568131
-0.0669724213339691
-0.0625075932450379
-0.0659093670270803
-0.0650690479083658
-0.0610091928886007
-0.0669724213339691
-0.0669724213339691
-0.0668914267201391
-0.0625075932450379
-0.0666180698983658
-0.0686328109180684
-0.0677621188191107
-0.0625075932450379
-0.0625075932450379
-0.0632972907301635
-0.0697768598387853
-0.071082897987323
-0.0646033288786339
-0.0668914267201232
-0.0689061677398137
-0.0714372494229004
-0.0699388490664772
-0.0669724213339691
-0.0669724213339691
-0.0669724213339691
-0.0669724213339691
-0.0669724213339691
-0.0625075932450379
-0.0625075932450379
-0.0625075932450379
-0.0607358360668692
-0.0618292633539657
-0.0656360102053508
-0.065858745393444
-0.0678734864131662
-0.074353055521788
-0.0759020775118317
-0.0759020775118317
-0.0714372494229004
-0.0714372494229004
-0.0714372494229004
-0.0726825416110087
-0.0669724213339691
-0.0714372494229004
-0.0714372494229004
-0.0669724213339691
-0.0697262382051807
-0.0669724213339691
-0.0692908921556305
-0.0714372494229004
-0.0733203741951384
-0.0759020775118317
-0.0773498562345214
-0.080366905600763
-0.070424816749634
-0.0699995950269261
-0.0714372494229004
-0.0714372494229004
-0.0759020775118317
-0.0737455959178464
-0.0714372494229004
-0.0786457700563279
-0.0721662009475979
-0.0759020775118317
-0.0759020775118317
-0.0759020775118317
-0.0730368930465962
-0.0759020775118317
-0.0710424006803663
-0.0669724213339691
-0.0734317417891395
-0.0799113108978315
-0.0772486129672447
-0.0714372494229004
-0.0770258777790745
-0.0772283643137347
-0.0714372494229004
-0.0714372494229004
-0.0711841412546559
-0.0669724213339691
-0.0712550115417163
-0.0732697525614069
-0.0759020775118317
-0.0759020775118317
-0.0759020775118317
-0.0759020775118317
-0.0759020775118317
-0.080366905600763
-0.0778256995909589
-0.0804580245413243
-0.0827258737294424
-0.080366905600763
-0.080366905600763
-0.080366905600763
-0.080366905600763
-0.080366905600763
-0.0759020775118317
-0.0759020775118317
-0.0759020775118317
-0.0806605110759653
-0.0804377758878757
-0.0739582067792539
-0.0714372494229004
-0.0759020775118317
-0.0723788118089867
-0.0714372494229004
-0.0714372494229004
-0.0701615842545346
-0.057202446037295
-0.0444457943546801
-0.0357489976917351
-0.0312537966225189
-0.0294719151176171
-0.0267889685335877
-0.0281355039889373
-0.0346150730976566
-0.0392722633944532
-0.038644555137069
-0.0575669217997266
-0.0485967683148927
-0.0446482808893128
-0.0425930425626656
-0.0442534321467192
-0.0401834528003815
-0.0438180860972978
-0.0413679990280571
-0.0446482808893128
-0.0401834528003815
-0.0401834528003815
-0.0452759891467208
-0.0535779370671753
-0.0535779370671753
-0.0580427651561066
-0.0619507552747683
-0.0610496901956169
-0.0649880532943335
-0.0759020775118317
-0.0789393755315218
-0.0791924836998642
-0.0740392013930403
-0.0802150406997369
-0.0737354715911131
-0.0756185963633095
-0.0759020775118317
-0.0759020775118317
-0.0714372494229004
-0.0780585591057714
-0.069716113878507
-0.0682582108289758
-0.0754768557890583
-0.0738772121653643
-0.0759020775118317
-0.0669724213339691
-0.0709917790467022
-0.0714372494229004
-0.0750212610860833
-0.0792329810067906
-0.0790507431255912
-0.0862288907787357
-0.0937613898675568
-0.0974365204715541
-0.0688859190861788
-0.0235289353258401
0.00659093670249488
0.0608978252939583
0.143066861054206
0.280960191147223
0.487486332157772
0.689365407198522
0.850119467055935
0.943992224516917
0.838182885839518
0.460515125747802
0.134916778033092
-0.0336127647512737
-0.1299457336084
-0.171425100230524
-0.194042846150707
-0.215121694407291
-0.218776576357633
-0.213562548090618
-0.198214068764444
-0.174371279309846
-0.135615356578878
-0.100706678006147
-0.075810958571357
-0.0599056412748127
-0.0480298060179086
-0.0384521929292568
-0.0370145385330615
-0.0419855829587081
-0.0312537966225189
-0.0334811485035753
-0.0314765318105847
-0.0303729801968538
-0.0357186247114502
-0.024075648969422
-0.0178593123557251
-0.0169379986230636
-0.0104584295144438
-0.00844368849475131
-0.00446482808893128
-0.00446482808893128
-0.0065301907423097
-0.00484955250479162
0
0
0.00119467055440684
0.00767423966302864
0.00370550358405309
0.00554813104935202
0.00860567772242928
0.00680354756405705
0.0132831166726788
0.00636820151463371
0.0128477706232555
0.0133944842667938
0.0168772526626366
0.0199246750091868
0.0267889685335877
0.0223241404446564
0.0249362167415275
0.0267889685335877
0.0267889685335877
0.030980439800728
0.0357186247114502
0.0357186247114502
0.0401834528003815
0.0401834528003815
0.0446482808893128
0.0417628477706123
0.0406187988498861
0.049548455027707
0.0625075932449466
0.064522334264742
0.0710019033734335
0.0774814724820553
0.080366905600763
0.0826550034421786
0.0924553517191163
0.104108451787923
0.111620702223282
0.116358887133923
0.120550358401144
0.124853197262356
0.133944842667938
0.1378123354796
0.145709310330896
0.15866844854814
0.166180698983455
0.172660268092078
0.178593123557251
0.183716032883784
0.196563803507002
0.20516948122934
0.213987769813294
0.222158101486222
0.231411736119479
0.237891305228102
0.244370874336817
0.246385615356542
0.252865184465163
0.258960029158014
0.261359494593544
0.263424857246945
0.263424857246945
0.263424857246945
0.264953630583479
0.267889685335877
0.261238002672812
0.248278864455564
0.236635888713358
0.231290244198686
0.208955979427389
0.185275179200682
0.170088689102299
0.150862592637502
0.123790142955527
0.104422305916722
0.088081642570686
0.069574373304115
0.0536690560077941
0.0352225327016077
0.0262321305633102
0.0132122463855364
-0.00415097396021933
-0.0130198841776647
-0.0239642813752624
-0.0340987324343453
-0.0413882476815196
-0.0414287449884842
-0.0498825578098537
-0.0535779370671753
-0.0494472117604105
-0.0535779370671753
-0.0579415218887228
-0.0580427651561066
-0.0619710039282308
-0.0639857449479233
-0.0704653140565451
-0.0669724213339691
-0.0639148746608165
-0.0669724213339691
-0.0669724213339691
-0.0669724213339691
-0.0713461304823312
-0.0759020775118317
-0.0759020775118317
-0.0759020775118317
-0.0759020775118317
-0.0725711740169317
-0.0759020775118317
-0.0730065200663997
-0.0709917790466645
-0.0645122099380408
-0.0714372494229004
-0.0714372494229004
-0.0714372494229004
-0.0714372494229004
-0.0714372494229004
-0.0691289029280217
-0.0625075932450379
-0.0669724213339691
-0.0669724213339691
-0.0669724213339691
-0.0669724213339691
-0.0669724213339691
-0.0632466690965688
-0.0580427651561066
-0.0580427651561066
-0.0580427651561066
-0.0625075932450379
-0.0625075932450379
-0.0630644312153431
-0.0644008423439714
-0.0582857489976206
-0.0691086542744166
-0.0672862754626444
-0.0686733082249953
-0.0677216215121857
-0.0657068804924932
-0.0625075932450379
-0.0661422265419166
-0.0596626574332947
-0.0625075932450379
-0.0600980034827765
-0.0668914267201311
-0.0649981776211976
-0.0585186085125758
-0.0669724213339691
-0.0634187826509284
-0.0680759729477671
-0.0714372494229004
-0.0669724213339691
-0.0696553679180363
-0.0759020775118317
-0.0736544769773128
-0.0714372494229004
-0.0740898230267361
-0.0637832584133283
-0.0683493297695164
-0.0646539505124288
-0.0634491556311618
-0.0699287247397836
-0.0714372494229004
-0.0714372494229004
-0.071366379135748
-0.0669724213339691
-0.0710727736605025
-0.0742518122544921
-0.0714372494229004
-0.0746871583039624
-0.0714372494229004
-0.0722168225812416
-0.0786963916899702
-0.0762463046207294
-0.0827258737293512
-0.0804580245414155
-0.0784432835215961
-0.0719637144129763
-0.080366905600763
-0.0768638885514558
-0.0759020775118317
-0.0759020775118317
-0.0797493216701179
-0.0732697525614981
-0.080366905600763
-0.0781699266998507
-0.0759020775118317
-0.0786052727494009
-0.0721257036406698
-0.0727635362248391
-0.0725610496902005
-0.0723281901752909
-0.0788077592839952
-0.0848317336896942
-0.0848317336896942
-0.0848317336896942
-0.082796744016527
-0.080366905600763
-0.0832320900660082
-0.0839812902441395
-0.0881322642044546
-0.081652695095741
-0.080366905600763
-0.080366905600763
-0.080366905600763
-0.0826752520957446
-0.0848317336896942
-0.0848317336896942
-0.0848317336896942
-0.0862693880857043
-0.0892965617786255
-0.080366905600763
-0.0773498562346107
-0.0764690398088682
-0.080366905600763
-0.0759020775118317
-0.0759020775118317
-0.0717409792248442
-0.0731482606406578
-0.0796278297492816
-0.0848317336896942
-0.0782509213137118
-0.073117887660472
-0.080366905600763
-0.080366905600763
-0.0827866196897598
-0.0803972785809507
-0.0798708135908372
-0.0888308427488895
-0.0848317336896942
-0.0848317336896942
-0.0848317336896942
-0.0848317336896942
-0.0848317336896942
-0.0848317336896942
-0.0892965617786255
-0.0870388369173754
-0.0848317336896942
-0.0884764913133478
-0.0937613898675568
-0.0862187664519728
-0.0892965617786255
-0.0892965617786255
-0.0892965617786255
-0.0892965617786255
-0.0892965617786255
-0.0892965617786255
-0.0892965617786255
-0.0892965617786255
-0.0848317336896942
-0.0885068642935355
-0.0868464747094244
-0.083606690155056
-0.08771716680848
-0.0831713441056327
-0.0892965617786255
-0.0892965617786255
-0.0892965617786255
-0.0854290689668293
-0.080366905600763
-0.0833333333333463
-0.080366905600763
-0.0837686793827697
-0.080366905600763
-0.0848317336896942
-0.0874741829667591
-0.0848317336896942
-0.0848317336896942
-0.0848317336896942
-0.083059976511601
-0.080366905600763
-0.079030494472093
-0.0725509253634693
-0.0723383145020241
-0.0759020775118317
-0.0759020775118317
-0.0783825375612225
-0.080366905600763
-0.0824120196006617
-0.0807718786700342
-0.080366905600763
-0.0767423966306552
-0.0726116713238028
-0.0759020775118317
-0.0669724213339691
-0.0697262382051073
-0.0714372494229004
-0.0714372494229004
-0.0714372494229004
-0.0759020775118317
-0.0759020775118317
-0.0728850281456437
-0.0724395577693979
-0.0734621147692825
-0.0833940792936465
-0.0792127323532196
-0.0740290770663606
-0.080366905600763
-0.0825233871946749
-0.0848317336896942
-0.0759020775118317
-0.0721662009476506
-0.0682582108289075
-0.0747377799376251
-0.0722876928684174
-0.0759020775118317
-0.0714372494229004
-0.0738670878386288
-0.0759020775118317
-0.0714372494229004
-0.0714372494229004
-0.0578301542948536
-0.049113108978244
-0.0479893087109796
-0.0415097396023598
-0.0357186247114502
-0.0384218199489818
-0.0401834528003815
-0.0424513019883628
-0.0489308710969866
-0.0535779370671753
-0.0535779370671753
-0.049113108978244
-0.0457012108695457
-0.0500749200178305
-0.0535779370671753
-0.0625075932450379
-0.0625075932450379
-0.0625987121856527
-0.0648665613736658
-0.058386992265042
-0.0686429352447262
-0.06775199449235
-0.0637427611063716
-0.0637225124529448
-0.0722370712347047
-0.0759020775118317
-0.0721662009476248
-0.0851253391648644
-0.0849026039768823
-0.0784230348681336
-0.0798606892641496
-0.0848317336896942
-0.0813084679869226
-0.0848317336896942
-0.0786558943829976
-0.0816425707689781
-0.0892965617786255
-0.0892965617786255
-0.0870793342242488
-0.0848317336896942
-0.0848317336896942
-0.0848317336896942
-0.0848317336896942
-0.0781091807395069
-0.0759020775118317
-0.0759020775118317
-0.0754262341554001
-0.0689466650467783
-0.0714372494229004
-0.0755477260761609
-0.0885068642935455
-0.0966063256793376
-0.0719535900865107
-0.0330761754345779
0.00260195197030447
0.0625683392052984
0.143087109706653
0.269003361274417
0.483335358199428
0.692746932328644
0.849785364272313
0.953255983476086
0.833373830638816
0.473271777426951
0.149313570648681
-0.0311019317200752
-0.134764913133533
-0.180071275260154
-0.192595067427856
-0.2163467379417
-0.214878710565659
-0.203650832219619
-0.185933260438258
-0.167648726359972
-0.131940225974926
-0.0983882071841779
-0.0688656704330077
-0.0576175434334085
-0.0511379743247154
-0.044658405216038
-0.0421880694933487
-0.040628923176655
-0.0357186247114502
-0.0321346130482158
-0.0312537966225189
-0.0281051310088348
-0.0267889685335877
-0.0267889685335877
-0.0223241404446564
-0.0223241404446564
-0.0223241404446564
-0.0178593123557251
-0.0217166808407069
-0.0164520309399841
-0.0065504393959308
-0.00640869882156659
-0.0133944842667938
-0.00839306686109513
-0.00191349775247135
0
-0.00211598428703659
-0.00446482808893128
-0.00446482808893128
-0.000769448831647385
0.00124529218806501
0.00446482808893128
0.00446482808893128
0.00446482808893128
0.00446482808893128
0.00924351030649915
0.0177985663952683
0.0178593123557251
0.0178593123557251
0.0223241404446564
0.0223241404446564
0.0212408374842674
0.0178593123557251
0.036366581622289
0.0375207548698502
0.0357186247114502
0.0334912728303423
0.0397379824241159
0.0419754586319392
0.0446482808893128
0.0460049406714491
0.0524845097800689
0.0589640788886927
0.0625075932450379
0.0634795286113635
0.076438666828607
0.0804175272343775
0.086897096343056
0.093376665451748
0.0982262179564881
0.10187097558006
0.108350544688716
0.118039525371584
0.129480014579007
0.135028145628208
0.147663305390101
0.154142874498841
0.16497590410233
0.177935042319578
0.1869760660915
0.194923662576456
0.204400032397804
0.211912282833081
0.224871421050325
0.228900903089963
0.23924796501028
0.245889523346588
0.254495201069083
0.254495201069083
0.263424857246945
0.263424857246945
0.267889685335877
0.271210464504064
0.27594864941476
0.269469080306138
0.262989511197516
0.258960029158014
0.254495201069065
0.237071234762892
0.224112096545648
0.211152958328311
0.194599684120942
0.170696148706139
0.148098651439856
0.127353905965417
0.102468310857243
0.0795468351354971
0.0578200299681939
0.0405074312559714
0.027548293038474
0.0107216620095174
-0.00425221722741669
-0.0168266310289586
-0.0287530879196854
-0.0387154254241916
-0.0496598226217447
-0.0535779370671753
-0.0582655003442612
-0.0648463127201993
-0.0666484428784962
-0.0759020775118317
-0.0759020775118317
-0.0759020775118317
-0.0726319199773449
-0.0722573198881484
-0.0815717004818659
-0.0852164581055189
-0.0892965617786255
-0.0892965617786255
-0.0848317336896942
-0.0808528732839099
-0.0908253351151671
-0.0902178755113227
-0.0892965617786255
-0.0892965617786255
-0.0937613898675568
-0.0937613898675568
-0.0935386546794101
-0.0915340379864647
-0.0895091726400271
-0.0910986919369145
-0.0899445186894688
-0.0848317336896942
-0.0882132588182504
-0.0892965617786255
-0.0892965617786255
-0.0848317336896942
-0.0848317336896942
-0.08489247965004
-0.0892965617786255
-0.0852063337787718
-0.0876564208480125
-0.0811768517393908
-0.0860365285707912
-0.0892965617786255
-0.0892965617786255
-0.0892965617786255
-0.0896306645607262
-0.0961102336694653
-0.093862633134889
-0.0937613898675568
-0.0898331510955079
-0.0892965617786255
-0.085803669055998
-0.0848317336896942
-0.0848317336896942
-0.0791519863928322
-0.0688150487992445
-0.0808832462640084
-0.0915745352934511
-0.0850949661847079
-0.080366905600763
-0.0841331551451378
-0.0848317336896942
-0.081500830194775
-0.080366905600763
-0.080366905600763
-0.080366905600763
-0.080366905600763
-0.080366905600763
-0.0823917709471926
-0.0848317336896942
-0.080366905600763
-0.080366905600763
-0.080366905600763
-0.080366905600763
-0.080366905600763
-0.0831004738184882
-0.0892965617786255
-0.0869983396104504
-0.0848317336896942
-0.0829688575709405
-0.080366905600763
-0.080366905600763
-0.080366905600763
-0.080366905600763
-0.0833738306402356
-0.0892965617786255
-0.0867249827887031
-0.0849532256105028
-0.0892965617786255
-0.0892965617786255
-0.0937613898675568
-0.0974770177783037
-0.0924958490260293
-0.0860162799174075
-0.0884663669866463
-0.0848317336896942
-0.0896914105211814
-0.0937613898675568
-0.0893370590856199
-0.0917871461548045
-0.0892965617786255
-0.0937613898675568
-0.0902077511845914
-0.0892965617786255
-0.0924148544121675
-0.0937613898675568
-0.0937613898675568
-0.0942271088973126
-0.100443445510849
-0.0897015348479662
-0.095573644352577
-0.0905722269468491
-0.0920503786498232
-0.0914429190459133
-0.0857732960757428
-0.0922528651844487
-0.0982262179564881
-0.0957052606001723
-0.0982970882435651
-0.100605434738593
-0.0982262179564881
-0.0937613898675568
-0.0900963835905201
-0.0892965617786255
-0.0925262220062389
-0.0937613898675568
-0.0937613898675568
-0.0937613898675568
-0.0961203579961986
-0.0938525088081577
-0.0937613898675568
-0.101638116065121
-0.0982262179564147
-0.0892965617786255
-0.0937613898675568
-0.0937613898675568
-0.0976086340257914
-0.0937613898675568
-0.0894787996597719
-0.0959583687683937
-0.0940144980358389
-0.0982262179564881
-0.0982262179564881
-0.0924351030656915
-0.0959786174219271
-0.100909164540535
-0.0937613898675568
-0.102235451342528
-0.0957558822338336
-0.0937816385210272
-0.0961912282833271
-0.0937613898675568
-0.0966265743328299
-0.0937613898675568
-0.0892965617786255
-0.0892965617786255
-0.0892965617786255
-0.0838091766897125
-0.085125339164912
-0.0916049082735318
-0.0937613898675568
-0.0982262179564881
-0.102113959421664
-0.104280565342481
-0.0982262179564881
-0.0972239096099767
-0.0967784392337607
-0.106588911837388
-0.100109342728766
-0.0982262179564881
-0.0982262179564881
-0.102387316243409
-0.0982262179564881
-0.0982262179564881
-0.0963127202040742
-0.102691046045419
-0.0990665370751985
-0.105546106183899
-0.102691046045419
-0.102691046045419
-0.107125501154088
-0.100706678005936
-0.0982262179564881
-0.102691046045419
-0.102691046045419
-0.0993398938969755
-0.102691046045419
-0.0982262179564881
-0.0955331470457631
-0.0940043737090499
-0.0982262179564881
-0.10249868383748
-0.104513424857173
-0.1033187543028
-0.0996132507188181
-0.0992892722633968
-0.102691046045419
-0.102691046045419
-0.0977098772931296
-0.0937613898675568
-0.0982262179564881
-0.0982262179564881
-0.0982262179564881
-0.101030656461344
-0.0982262179564881
-0.0982262179564881
-0.0982262179564881
-0.102691046045419
-0.0970821690358306
-0.0937613898675568
-0.0937613898675568
-0.0893775563924952
-0.0956951362733796
-0.0982262179564881
-0.0967278176000886
-0.0972745312436468
-0.106092819827499
-0.0965354553923399
-0.103946462560275
-0.108978252946162
-0.102498683837542
-0.0982262179564881
-0.102448062203869
-0.105384116956206
-0.102691046045419
-0.101354634916821
-0.0982262179564881
-0.101789980966246
-0.0982262179564881
-0.106690155104728
-0.100210585996033
-0.0982262179564881
-0.0982262179564881
-0.0982262179564881
-0.0982262179564881
-0.0982262179564881
-0.0982262179564881
-0.0982262179564881
-0.0878184100758428
-0.0776130887295752
-0.0666686915320202
-0.0625075932450379
-0.0668408050863679
-0.064390718017256
-0.0708702871258778
-0.0773498562344976
-0.080366905600763
-0.0848317336896942
-0.0818045599967591
-0.0797898189770666
-0.0759020775118317
-0.0759020775118317
-0.0780585591057952
-0.084538128214419
-0.077623213056245
-0.080366905600763
-0.0816526950957549
-0.0848317336896942
-0.0892965617786255
-0.0892965617786255
-0.0892965617786255
-0.0892965617786255
-0.0892965617786255
-0.0892965617786255
-0.0933057951646036
-0.0982262179564881
-0.0946523306200602
-0.0937613898675568
-0.0937613898675568
-0.0982262179564881
-0.100929413193944
-0.102691046045419
-0.102691046045419
-0.102691046045419
-0.107155874134351
-0.103308629976177
-0.101293888956358
-0.101638116065242
-0.097264406916977
-0.0997144939861331
-0.106102944154171
-0.0956850119467098
-0.102691046045419
-0.0984793261248356
-0.0978819908476042
-0.0982262179564881
-0.101911472886987
-0.103926213906711
-0.113655691896502
-0.0978921151743969
-0.059014700522678
-0.0156724577819419
0.0327218239989051
0.106305430688689
0.233598590692587
0.433736281534777
0.652411614628113
0.809743652046839
0.919582472765241
0.846687320295049
0.510266067304842
0.16275867654812
-0.0399708419382364
-0.151652290122021
-0.199520106912993
-0.222340339367385
-0.235299477584632
-0.238407645891629
-0.23553233709954
-0.215131818734007
-0.192139472725117
-0.158354594419735
-0.125956748876282
-0.0936398979467522
-0.0762564289475122
-0.0673672700765845
-0.0625075932450379
-0.0625075932450379
-0.0592273113837584
-0.0593083059976935
-0.0535779370671753
-0.0535779370671753
-0.0529502288098149
-0.0399910905925673
-0.0400619608795115
-0.0401834528003815
-0.0362754626817416
-0.0297958935731198
-0.0302616126026773
-0.0312537966225189
-0.0312537966225189
-0.0267889685335877
-0.0267889685335877
-0.0267889685335877
-0.0267889685335877
-0.0184262746528131
-0.0223241404446564
-0.0223241404446564
-0.0210282266229332
-0.0178593123557251
-0.0125339164946209
-0.00605434738591539
-0.00403960636618168
-0.0024399627424421
-0.00446482808893128
0
0
0
0
0
0.0031486656137377
0.00516340663342822
0.00892965617786255
0.00919288867281873
0.015672457781558
0.0221520268901817
0.0260093953750881
0.0235390596527061
0.0251387032762415
0.0312537966225189
0.0312537966225189
0.0312537966225189
0.0401834528003815
0.042734783136893
0.0447495241565835
0.0512290932652674
0.057708662373954
0.0580427651561066
0.061738144413337
0.0694630057100192
0.0759020775118317
0.0811768517393313
0.0904811080062119
0.107155874134351
0.107155874134351
0.120368120519935
0.12250435346043
0.132952658648031
0.142874498845801
0.14994127890491
0.160733811201526
0.160733811201526
0.170959381201169
0.181255821487834
0.187522779735114
0.189750131616146
0.200471793625732
0.211638926011381
0.218118495120001
0.224598064228625
0.231077633337342
0.237557202445995
0.244036771554617
0.245079577208131
0.243601425505138
0.241100716802289
0.239035354148932
0.236635888713358
0.22444619932779
0.218776576357633
0.209533066051169
0.180405378042598
0.162920665775888
0.143481958449707
0.128508079212773
0.106730652411797
0.0808123759773181
0.0587008463936766
0.0379054792856907
0.0193880856923956
0.00294617907933108
-0.0109950188312806
-0.0270015793949178
-0.0413781233546991
-0.0517251852750934
-0.0583667436115775
-0.0669724213339691
-0.0711638926010876
-0.0821082897986387
-0.0885878589073693
-0.0937613898675568
-0.0970821690357017
-0.0982262179564881
-0.101111651075167
-0.107155874134351
-0.104705787065177
-0.102691046045419
-0.107155874134351
-0.107155874134351
-0.108735269104552
-0.108026566233392
-0.102691046045419
-0.102691046045419
-0.103399748916648
-0.107155874134351
-0.107429230956038
-0.111620702223282
-0.107317863362094
-0.111620702223282
-0.111620702223282
-0.108573279876874
-0.111620702223282
-0.116085530312213
-0.113088729599547
-0.107702587777903
-0.109059247560037
-0.102802413639421
-0.11140809136174
-0.116085530312213
-0.111620702223282
-0.115326205807244
-0.105900457619592
-0.109231361114496
-0.10797594459965
-0.111620702223282
-0.116085530312213
-0.113686064876646
-0.107206495768023
-0.109656582837265
-0.107155874134351
-0.107155874134351
-0.107155874134351
-0.107155874134351
-0.107155874134351
-0.106497792896729
-0.108036690560047
-0.107155874134351
-0.109393350342114
-0.111620702223282
-0.111620702223282
-0.115437573401313
-0.114718746203421
-0.111620702223282
-0.10808731219372
-0.114566881302341
-0.115589438302393
-0.114131535252862
-0.116085530312213
-0.114010043332125
-0.111620702223282
-0.111620702223282
-0.111620702223282
-0.112825497104396
-0.112865994411406
-0.11239015105487
-0.116085530312213
-0.116085530312213
-0.116085530312213
-0.116085530312213
-0.114172032559801
-0.115548940995384
-0.116085530312213
-0.119578423034765
-0.116085530312213
-0.119143076985342
-0.120550358401144
-0.117928157777564
-0.120550358401144
-0.118363503826987
-0.120287125906063
-0.120550358401144
-0.120550358401144
-0.12186652087633
-0.125015186490076
-0.125015186490076
-0.125015186490076
-0.125015186490076
-0.122554975094171
-0.120560482727808
-0.125015186490076
-0.116935973757732
-0.12372939699501
-0.129480014579007
-0.12170453164856
-0.125015186490076
-0.120550358401144
-0.117816790183495
-0.115802049163794
-0.116217146559739
-0.116237395213225
-0.11348357834196
-0.116085530312213
-0.111620702223282
-0.115062973312229
-0.115093346292506
-0.114627627262679
-0.11552869234193
-0.111620702223282
-0.111742194144015
-0.113949297371787
-0.111620702223282
-0.116085530312213
-0.119801158222906
-0.11928481755969
-0.122646094034685
-0.125015186490076
-0.127860122301797
-0.128690317094027
-0.120550358401144
-0.120550358401144
-0.120550358401144
-0.116561373668704
-0.116085530312213
-0.116085530312213
-0.120550358401144
-0.120550358401144
-0.119882152836792
-0.11340258372817
-0.112086421252895
-0.120550358401144
-0.112025675292527
-0.113432956708356
-0.123739521321742
-0.122261369619029
-0.112693880856903
-0.115143967926113
-0.111620702223282
-0.111114485886732
-0.112197788846975
-0.120408617826891
-0.109535090916461
-0.111256226460858
-0.114435265054895
-0.111620702223282
-0.108370793342198
-0.108391041995744
-0.103470619203739
-0.107155874134351
-0.107155874134351
-0.107155874134351
-0.11152958328261
-0.114161908233072
-0.111620702223282
-0.110132426193687
-0.107155874134351
-0.112673632203453
-0.109950188312489
-0.103308629976041
-0.109788199084662
-0.11143846434208
-0.107155874134351
-0.107155874134351
-0.107155874134351
-0.110932248005487
-0.111620702223282
-0.111620702223282
-0.111620702223282
-0.111620702223282
-0.111620702223282
-0.111620702223282
-0.111600453569887
-0.109190863807498
-0.115670432916185
-0.116085530312213
-0.116085530312213
-0.114921232738068
-0.114799740817215
-0.111620702223282
-0.111620702223282
-0.111620702223282
-0.113929048718242
-0.116085530312213
-0.113493702668691
-0.116085530312213
-0.111620702223282
-0.115073097638959
-0.115083221965773
-0.105586603491029
-0.107155874134351
-0.107155874134351
-0.102691046045419
-0.102691046045419
-0.106852144332385
-0.105444862916617
-0.110142550520268
-0.11480986514399
-0.111620702223282
-0.111620702223282
-0.111620702223282
-0.111215729154072
-0.107155874134351
-0.107155874134351
-0.107155874134351
-0.107155874134351
-0.105606852144293
-0.102691046045419
-0.102691046045419
-0.102691046045419
-0.102691046045419
-0.102691046045419
-0.102691046045419
-0.104948770906648
-0.107155874134351
-0.102691046045419
-0.102691046045419
-0.102691046045419
-0.106092819827461
-0.106204187421515
-0.102691046045419
-0.103207386708704
-0.109686955817398
-0.107155874134351
-0.109251609767903
-0.119841655529768
-0.108299923055183
-0.106366176649239
-0.103916089579998
-0.113635443242889
-0.111620702223282
-0.111620702223282
-0.103045397481025
-0.107155874134351
-0.10277204065936
-0.109089620540223
-0.111620702223282
-0.107155874134351
-0.107155874134351
-0.0961001093426826
-0.0862187664520322
-0.0797391973434105
-0.0706171789577456
-0.066780059126036
-0.0603004900174181
-0.0580427651561066
-0.0687441785120426
-0.0714372494229004
-0.0785748997691319
-0.0848317336896942
-0.0839306686105944
-0.0832827116996362
-0.0839002956303412
-0.0783825375611987
-0.0847709877294417
-0.0759020775118317
-0.0799619325314659
-0.0819766735511604
-0.0812072247196063
-0.080366905600763
-0.0835560685214276
-0.0848317336896942
-0.0848317336896942
-0.0806706354026452
-0.0848317336896942
-0.0848317336896942
-0.0956445146396976
-0.106021949540159
-0.114637751589496
-0.101233142996046
-0.0982262179564881
-0.0982262179564881
-0.102691046045419
-0.102691046045419
-0.107014133560153
-0.102691046045419
-0.102691046045419
-0.0947839468675505
-0.0930324383427809
-0.0982262179564881
-0.101526748471191
-0.0982262179564881
-0.0953610334913023
-0.0986413153524449
-0.0978313692138945
-0.0982059693030097
-0.1002207103227
-0.102691046045419
-0.0997853642731943
-0.106264933381903
-0.117209330579452
-0.117411817114211
-0.0875653019071836
-0.0373587656421167
-0.00218685457451016
0.0674685133428837
0.171030251486539
0.330994613857966
0.55372980196677
0.74204227918675
0.880836674360961
0.930192767180798
0.721813874378941
0.339792653791547
0.0666383185524276
-0.0953104118576382
-0.186510347061657
-0.213623294050787
-0.227129145911536
-0.24847122666339
-0.238630381079669
-0.225671242862425
-0.20664763293264
-0.175100230834558
-0.136222816182851
-0.0973454015310965
-0.07164986028453
-0.0586198517798227
-0.0535779370671753
-0.052069412384118
-0.049113108978244
-0.049113108978244
-0.049113108978244
-0.0452861134733965
-0.0464605353744698
-0.0399809662657171
-0.0357186247114502
-0.0314866561374048
-0.0232252055239783
-0.0216559348803282
-0.0267889685335877
-0.0234276920585158
-0.0187705017615562
-0.0223241404446564
-0.0178593123557251
-0.0178593123557251
-0.0223241404446564
-0.0182136637914355
-0.0133944842667938
-0.0162394200785964
-0.00975985096997463
-0.0101142024054747
-0.00699590977200209
0
0.00276394119784563
0.00446482808893128
0.00213623294050898
0
0.00892965617786255
0.00892965617786255
0.0133944842667938
0.016867128335937
0.0178593123557251
0.0208966103753181
0.0217369294941773
0.0178593123557251
0.0314056615234478
0.0335520187908308
0.0312537966225189
0.0357186247114502
0.0357186247114502
0.0370145385331
0.0434941076418159
0.0544385048394018
0.0551674563641896
0.0544283805125278
0.0673875187299101
0.0758919531850846
0.0823715222937064
0.0767930182644264
0.0774713481553518
0.080366905600763
0.0859656582836641
0.0955938930059542
0.103389624589863
0.112582513262833
0.120813590896145
0.127293160004766
0.13377272911351
0.140252298222137
0.146731867330759
0.157676264528312
0.164155833636934
0.180536994289847
0.187522779735114
0.197525614546471
0.205382092090839
0.218877819624957
0.227473373020593
0.236301785931132
0.233851698861939
0.244026647227922
0.246810837079261
0.256550439395615
0.258960029158014
0.264609403474639
0.27197991333574
0.267889685335877
0.267889685335877
0.261470862187606
0.258960029158014
0.245474425950786
0.233102498683879
0.216609970436902
0.203650832219658
0.184930952091838
0.159012675657366
0.137771838172683
0.116105778965731
0.090187502531244
0.0660612319282927
0.0504292714534373
0.0361134734540438
0.0200461669299815
0.00800834244530021
-0.00140728141574134
-0.0183452800388641
-0.0298262665531568
-0.035769246345039
-0.0443141781070654
-0.0572733163244454
-0.0641376098488978
-0.0669724213339691
-0.0726319199772441
-0.0791114890859588
-0.080366905600763
-0.0831409711253398
-0.0848317336896942
-0.0871704531648478
-0.0805896407889295
-0.0867351071152975
-0.0932146762239233
-0.0997549912930515
-0.0937613898675568
-0.0947940711941905
-0.101273640302812
-0.0976288826792777
-0.0963734661644577
-0.102529056817759
-0.0982262179564881
-0.0982262179564881
-0.0972441582634194
-0.106447171263037
-0.102691046045419
-0.0993702668772534
-0.0928906977685991
-0.0921819948972737
-0.088861215729218
-0.0872818207588619
-0.0937613898675409
-0.0917466488478821
-0.0892965617786255
-0.0892965617786255
-0.0857024257886797
-0.0848317336896942
-0.0848317336896942
-0.085540436560976
-0.0865731178876533
-0.0806402624224944
-0.0848317336896942
-0.0891345725508068
-0.0919086380755581
-0.0892965617786255
-0.0937613898675568
-0.0903292431053203
-0.0892965617786255
-0.0892965617786255
-0.0887498481351467
-0.0848317336896942
-0.0892965617786255
-0.0871704531648795
-0.0889725833231308
-0.0937613898675568
-0.09746689345157
-0.0969708014417156
-0.0937613898675568
-0.0937613898675568
-0.0937613898675568
-0.0978414935406852
-0.0961608553030502
-0.0982262179564881
-0.0937613898675568
-0.0937613898675568
-0.0923541084516651
-0.0982262179564881
-0.090389989065722
-0.0999777264811307
-0.0982262179564881
-0.0982262179564881
-0.0984489531446149
-0.102691046045419
-0.0984388288179114
-0.100028348114755
-0.106507917223485
-0.107155874134351
-0.110537399262885
-0.107155874134351
-0.107155874134351
-0.107155874134351
-0.107155874134351
-0.111681448183602
-0.11401004333214
-0.111620702223282
-0.114445389381622
-0.111620702223282
-0.107155874134351
-0.107155874134351
-0.102691046045419
-0.102691046045419
-0.102691046045419
-0.102691046045419
-0.102691046045419
-0.104604543797754
-0.107155874134351
-0.111620702223282
-0.108127809500676
-0.110577896569917
-0.107155874134351
-0.112228161827224
-0.113463329688581
-0.116085530312213
-0.113898675738131
-0.111620702223282
-0.111620702223282
-0.107854452678933
-0.107155874134351
-0.107155874134351
-0.107155874134351
-0.104260316688971
-0.0986716883326268
-0.105151257441319
-0.107165998461066
-0.111620702223282
-0.107581095857182
-0.111620702223282
-0.108016441906605
-0.108310047381787
-0.111620702223282
-0.112339529421188
-0.118819098529917
-0.120266877252682
-0.116085530312213
-0.116085530312213
-0.116085530312213
-0.116085530312213
-0.119122828331961
-0.116085530312213
-0.120550358401144
-0.117543433361694
-0.116085530312213
-0.118657109302187
-0.120428866480358
-0.116085530312213
-0.116085530312213
-0.120550358401144
-0.116834730490421
-0.116085530312213
-0.112805248451015
-0.116085530312213
-0.116085530312213
-0.115295832827145
-0.107155874134351
-0.111580204916266
-0.109646458510481
-0.107155874134351
-0.1056169764711
-0.102691046045419
-0.102691046045419
-0.102691046045419
-0.107155874134351
-0.107155874134351
-0.107388733649209
-0.111620702223282
-0.111620702223282
-0.107155874134351
-0.114809865143946
-0.123638278054501
-0.120550358401144
-0.118667233629095
-0.114577005629081
-0.115579313975612
-0.114141659579578
-0.116156400599264
-0.120550358401144
-0.120550358401144
-0.114435265054891
-0.107955695946269
-0.111620702223282
-0.111620702223282
-0.110841129064933
-0.10995018831239
-0.116085530312213
-0.116085530312213
-0.120459239460524
-0.111620702223282
-0.119497428420802
-0.119062082371498
-0.116085530312213
-0.116085530312213
-0.119153201312
-0.112238286153959
-0.118717855262577
-0.116085530312213
-0.11828250921303
-0.116338638480521
-0.114323897460819
-0.111620702223282
-0.116085530312213
-0.112744502490584
-0.111620702223282
-0.114526383995393
-0.115629935609343
-0.114091037945917
-0.120550358401144
-0.120550358401144
-0.120550358401144
-0.120550358401144
-0.124164743044553
-0.123850888915908
-0.120550358401144
-0.116085530312213
-0.116085530312213
-0.115791924837019
-0.111620702223282
-0.111620702223282
-0.107155874134351
-0.103268132669195
-0.0996638723524029
-0.102691046045419
-0.102691046045419
-0.102691046045419
-0.103258008342361
-0.109737577450982
-0.111620702223282
-0.111620702223282
-0.107459603936383
-0.107155874134351
-0.107155874134351
-0.111620702223282
-0.108330296035352
-0.111620702223282
