-0.020494850726837
-0.0149459047476447
-0.0155965349295414
-0.0231438450384377
-0.0171952262333978
-0.0194445477190344
-0.0163958805814696
-0.020494850726837
-0.017994571885326
-0.0161449232255952
-0.0101963044205553
-0.0081979402907348
-0.0163958805814696
-0.0128452987321638
-0.0122969104361022
-0.00914600141276622
-0.0081979402907348
-0.0081979402907348
-0.00769602557904433
-0.0040989701453674
-0.00830018217646117
-0.0122969104361022
-0.00849537123097254
-0.0122969104361022
-0.0122969104361022
-0.0105030300777089
-0.0163958805814696
-0.0171487526489869
-0.0178923299995996
-0.0163958805814696
-0.0163958805814696
-0.0123433840205238
-0.0141000855114113
-0.00909023311150624
-0.0122969104361022
-0.00904375952708462
-0.0153920511580887
-0.00944343235304875
-0.00880209688815164
-0.0147507156931916
-0.0122969104361022
-0.0143510428672275
-0.0163958805814696
-0.0130869613711003
-0.0081979402907348
-0.0081979402907348
-0.0081979402907348
-0.00648771238424464
-0.00540952522592744
-0.0081979402907348
-0.0081979402907348
-0.00814217198942927
-0.00600438710640292
-0.0081979402907348
-0.0066921961556634
-0.0040989701453674
-0.0081979402907348
-0.0111536602595146
-0.0081979402907348
-0.0107539874335505
0
-0.00431274863370322
-0.0081979402907348
-0.00175670149088754
-0.0113116704465899
-0.0122969104361022
-0.00909023311146068
-0.00915529612969414
-0.00948990593743048
-0.0081979402907348
-0.0106052719634368
-0.0160798602074074
-0.0081979402907348
-0.0159125553036036
-0.0131799085399449
-0.00474030561026451
0
-0.00611592370901244
-0.0040989701453674
-0.00675725917390949
-0.00778897274788175
-0.00635758634794537
-0.00820723500761804
-0.0104379670594883
-0.00448934825444836
-0.0040989701453674
-0.00740788935568971
-0.00713834256604916
-0.00700821652972558
-0.0116369855373806
-0.0081979402907348
-0.0161356285087121
-0.0101870097036722
-0.0121574896828935
-0.0170743949139053
-0.00873703386991321
-0.0122969104361022
-0.0154571141763214
-0.0122969104361022
-0.0150574413503517
-0.0081979402907348
-0.012919656467294
-0.0081979402907348
-0.0101591255530447
-0.0122969104361022
-0.0081979402907348
-0.0116091013867835
-0.0081979402907348
-0.0112094285608193
-0.0122969104361022
-0.0122969104361022
-0.0122969104361022
-0.0145090530542586
-0.0163958805814696
-0.0145834107892774
-0.0122969104361022
-0.0081979402907348
-0.0114603859166354
-0.0184686024463088
-0.0122969104361022
-0.0122969104361022
-0.0122969104361022
-0.00841171877907062
-0.0102334832880937
-0.00428486448299829
-0.0081979402907348
-0.0187381492360351
-0.0179666877346766
-0.0154106405918991
-0.0155314719113413
-0.0122969104361022
-0.0163958805814696
-0.0163958805814696
-0.0163958805814696
-0.0163958805814696
-0.0163958805814696
-0.0163958805814696
-0.0130311930698427
-0.0163958805814696
-0.0163958805814696
-0.0130126036361286
-0.0163958805814696
-0.0122969104361022
-0.0122969104361022
-0.0122969104361022
-0.0128638881659285
-0.0081979402907348
-0.0163958805814696
-0.0131799085399449
-0.0113302598802598
-0.0138305387218447
-0.020494850726837
-0.020494850726837
-0.0245938208722044
-0.018542960181358
-0.0122969104361022
-0.0188775699891914
-0.019862809978823
-0.0122969104361022
-0.0184314235788811
-0.0114789753503961
-0.0108655240361599
-0.0159776183217334
-0.010028999516641
-0.0081979402907348
-0.0100661783842317
-0.00857902368293265
-0.0081979402907348
-0.0081979402907348
-0.00712904784916605
-0.0040989701453674
-0.0040989701453674
-0.00661783842064462
-0.00436851693500801
-0.0103171357400478
-0.00435922221801802
-0.0040989701453674
-0.00766814142843951
-0.0163958805814696
-0.013226382124367
-0.0145555266386279
-0.00542811465960219
-0.00461947429082416
-0.0105680930958979
-0.0121760791166095
-0.0081979402907348
-0.0120180689296306
-0.0148250734282462
-0.0122969104361022
-0.0111257761088488
-0.0081979402907348
-0.0148529575789019
-0.0108190504517384
-0.0160240919061557
-0.0100754731010627
-0.012269026285447
-0.00637617578165936
-0.0040989701453674
0
-0.00654348068556759
-0.00717552143358773
-0.0040989701453674
-0.0075751942595518
-0.0040989701453674
-0.000223073205218929
-0.0040989701453674
-0.0040989701453674
0
-0.00352269769865
0
-0.00312302487268025
-0.0040989701453674
-0.0040989701453674
-0.0040989701453674
-0.0040989701453674
-0.00417332788043946
-0.0081979402907348
-0.0119715953452089
-0.0122969104361022
-0.0122969104361022
-0.00932260103360834
-0.0152712198386482
-0.0122969104361022
-0.00972227385952007
-0.0040989701453674
-0.00192400639474957
-0.00402461241034744
-0.00232367922071364
-0.0036249395843777
-0.0040989701453674
-0.0040989701453674
-0.0040989701453674
-0.00692456407780559
-0.0117206379893409
-0.0081979402907348
-0.0081979402907348
-0.0081979402907348
-0.0120738372309354
-0.0139234858906311
-0.0198721046957061
-0.0176227832100288
-0.0235714020151094
-0.0237665910696152
-0.0178179722645286
-0.0118693534594827
-0.0081979402907348
-0.00407108599471745
0
0
-0.00967580027515073
-0.00564189314792549
-0.00517715730381949
-0.0111257761088593
-0.00887645462322259
-0.0122969104361022
-0.0128545934491496
-0.0162378703944447
-0.0122969104361022
-0.0105680930958701
-0.00461947429077922
-0.0095270848050028
-0.0154757036100878
-0.0195653790385328
-0.0136167602334535
-0.0117671115737623
-0.0058184927686887
-0.0081979402907348
-0.00621816559465845
-0.000269546789588277
-0.0025188682752608
-0.00342975052981505
-0.00583708220246109
-0.00303007770385075
0
0.00263040487788646
0.00371788675317005
-0.00223073205192261
-0.0163401122801525
-0.00907164367763542
0.0147228315425248
0.044047663308279
0.0737907573334781
0.135349667249384
0.224021266312082
0.39102873926538
0.601712086849512
0.775718481615321
0.906588095326197
0.966687734691249
0.749228538498239
0.387664051751328
0.15135516972135
0.00390378109041252
-0.0676655389076868
-0.0956426367252703
-0.103440904190021
-0.113005167862544
-0.11067219392492
-0.104872290589958
-0.0870264341747453
-0.0661133211881919
-0.0262203963266311
0.00113395545975688
0.0130497825036553
0.0342603264305244
0.035821838866744
0.040989701453674
0.040989701453674
0.040989701453674
0.0450886715990414
0.0450886715990414
0.047802728928836
0.0450886715990414
0.0511581217236258
0.0573855820351436
0.0568000148714989
0.0532866118897762
0.0616704465181913
0.0655835223258784
0.0655835223258784
0.0672193924972906
0.076653530133485
0.0766442354165384
0.0768673086217687
0.081979402907348
0.0792932297281565
0.0778804327619806
0.0778804327619806
0.0779176116295136
0.0838662304346111
0.0860783730527154
0.0831040636501169
0.0812172361229523
0.0871658549280504
0.0901773431980828
0.0867661821020863
0.0927148009071263
0.0942763133434502
0.0942763133434502
0.102251180429067
0.104835111722437
0.106062014351024
0.0983752834888176
0.107939547161425
0.11067219392492
0.11067219392492
0.11067219392492
0.113060936163849
0.114771164070287
0.114771164070287
0.122448600215612
0.127068074506389
0.130507119753087
0.135266014797124
0.138305387217858
0.143463955087859
0.151383053872168
0.168057775960063
0.163577722422451
0.163949511097807
0.171738483845747
0.183635721455826
0.194092277949145
0.203331226530735
0.205989515559283
0.217719448265495
0.226084693460157
0.234524296389818
0.242322563854647
0.252128490166069
0.265959028887937
0.278014276685003
0.293452801427599
0.297932854965091
0.301409079079346
0.303323790757188
0.308807673718141
0.316605941182892
0.328503178793038
0.328103505967067
0.336115551920127
0.332323307431886
0.336115551920127
0.339508123582403
0.344313492210862
0.344313492210862
0.335371974569499
0.332016581774759
0.32757370710468
0.319431535115257
0.307534297505061
0.289744209391193
0.275541881994062
0.252658289028323
0.228863813807979
0.207058408000754
0.186628620291978
0.162769082053641
0.150871844443491
0.130581477488066
0.114780458787125
0.0989887348030194
0.08443320816442
0.0714949622633392
0.0602390601181855
0.0542904413131049
0.0401438822173181
0.0368907313083066
0.0323456147525532
0.0263969959474613
0.0163958805814696
0.0163958805814696
0.00890433877383186
0.017892329999652
0.0138026545711269
0.0122969104361022
0.0122969104361022
0.0122969104361022
0.00975015801017577
0.00790050935044487
0.0040989701453674
0.0040989701453674
0
0
0
0
0
0.00279770978178256
0
0
-0.00395025467522539
0.00199836412984261
0.0040989701453674
0
0.00344833996358081
0.00699892181283124
0.0040989701453674
0.0081979402907348
0.0081979402907348
0.0118972376101386
0.0081979402907348
0.0081979402907348
0.0081979402907348
0.011897237610132
0.00529798862321342
0
0
0.00289995166746905
0.0040989701453674
0.0015986913038622
0.00434992750123565
0.00609733427519389
0.0040989701453674
0.0040989701453674
0.000548388296067682
0.0040989701453674
0.0040989701453674
0.00319738260771848
0
0.00359705543368277
-0.0023515633713907
-0.00809569840501447
-0.00214707959994668
-0.00380153920512343
-0.00254675242591666
0
-0.00115254489348076
-0.0040989701453674
-0.0040989701453674
-0.00149644941813595
0
0
0
-0.00229579507006409
0
0
0.00325315090905789
0.00309514072199269
0.00285347808308791
0.00349481354795699
0.00245380525711839
0.0040989701453674
0.00615310257651581
0.0081979402907348
0
0.00350410826488583
0.0040989701453674
0.00720340558428893
0.00324385619212846
0.00270476261295769
0
0.00230508978699385
0.0040989701453674
0.0040989701453674
0.0078540357660696
0
0.00335539279473791
0.00299289883626599
0
0.0081979402907348
0.0081979402907348
0.0119901847789294
0.00604156597388888
0.0121110160985175
0.014639179090588
0.00869056028549667
0.0122969104361022
0.0155035877607377
0.0154385247425161
0.00948990593743663
0.0199371677138478
0.013988548908774
0.0121389002490773
0.00619028144400827
0.0040989701453674
0.0040989701453674
0.00755660482583155
0.00988028404652905
0.0040989701453674
0.0040989701453674
0.00675725917390341
0.0122969104361022
0.0122969104361022
0.0041082648622445
0.0100568836673431
0.0122969104361022
0.0111164813920228
0.0163958805814696
0.00925753801541453
0.0122969104361022
0.0081979402907348
0.0081979402907348
0.00793768821798367
0.0040989701453674
0.00805851953752011
0.0140071383425617
0.00927612744910323
0.0081979402907348
0.0081979402907348
0.0163958805814696
0.0136353496672259
0.0087091497193023
0.0122969104361022
0.0124084470387054
0.0163958805814696
0.0125850466594628
0.0163958805814696
0.00957355838938376
0.00935977990109858
0.0122969104361022
0.00896010707512951
0.0122969104361022
0.0081979402907348
0.0104100829088853
0.0122969104361022
0.0122969104361022
0.015959028887961
0.0149830836152477
0.0090344648102072
0.0133100345763598
0.0163958805814696
0.0129103617503964
0.0139327806074682
0.0166096590697995
0.020494850726837
0.016581774919104
0.0180596349035315
0.0169814477450683
0.0107261032829187
0.0163958805814696
0.0122969104361022
0.0122969104361022
0.0200301148826841
0.0117671115737161
0.0123619734542851
0.0125664572256447
0.0081979402907348
0.020494850726837
0.0137654757035954
0.0152805145554853
0.00933189575044571
0.0137282968361422
0.0179295088671439
0.0163958805814696
0.0163958805814696
0.0163958805814696
0.0122969104361022
0.0159125553035907
0.020494850726837
0.020494850726837
0.0245938208722044
0.0217775216566558
0.0163958805814696
0.0163958805814696
0.0163958805814696
0.0143789270178601
0.0122969104361022
0.0213592593969253
0.0163958805814696
0.0274751831059022
0.0245938208722044
0.0245938208722044
0.0272614046176233
0.0245938208722044
0.0268617317916599
0.0245938208722044
0.0245938208722044
0.0245938208722044
0.0260623861397313
0.0320110049447714
0.0286927910175718
0.0286927910175718
0.0280235714019735
0.0245938208722044
0.0286927910175718
0.0265735955682651
0.0245938208722044
0.0245938208722044
0.0245938208722044
0.0259136706695834
0.0255232925604751
0.0236736439007897
0.020494850726837
0.0281722868721214
0.0222236680670477
0.0206156820463235
0.0226233408930177
0.020494850726837
0.0189240435736198
0.0232367922073212
0.0234226865449567
0.0174740677398755
0.0212663122281147
0.0245938208722044
0.0245938208722044
0.0245938208722044
0.0205227348774979
0.0186730862177679
0.0127244674127274
0.0178179722645748
0.020494850726837
0.017418299438611
0.0176227832100234
0.0141651485296334
0.0221214261813551
0.0168420269918952
0.0245938208722044
0.0206714503475885
0.0221678997657819
0.0316392162695094
0.0450886715990414
0.0482116964717296
0.0541603152767821
0.0601089340818675
0.0559634903520359
0.0427649923782818
0.040989701453674
0.040989701453674
0.040989701453674
0.0394653678848425
0.0368907313083066
0.0391400527940418
0.0421143621965011
0.0368907313083066
0.0343160947317306
0.0365654162173671
0.0284418336617158
0.036667658103229
0.0374391196043783
0.0291668215785676
0.0232182027735209
0.020494850726837
0.020494850726837
0.0233204446592695
0.0199185782800816
0.0139699594750071
0.0042755697661585
0.0102241885712274
0.0122969104361022
0.0081979402907348
0.0081979402907348
0.0081979402907348
0.00512138900246873
0.0081979402907348
0.0081979402907348
0.00862549726734835
0.0122969104361022
0.0163401122801824
0.0100754731011089
0.0197512733761957
0.0149180205970598
0.0156244190801851
0.0163958805814696
0.0163958805814696
0.0170743949139517
0.0154385247425284
0.0166747220879869
0.0141093802282656
0.000241662638896425
0.0017288173402257
0.0255697661450654
0.062702160092191
0.0960330148344742
0.154617615347435
0.237117522400423
0.378722534111693
0.580975573484189
0.761302375729466
0.896140833549954
0.977227943636459
0.804151020559264
0.44862809978716
0.184193404468812
0.0327824664457432
-0.0423560248354349
-0.07347473695952
-0.0790236829385556
-0.0968695393538329
-0.0983938729225961
-0.100643194408233
-0.0873331598319424
-0.0639569468712897
-0.0336004015318144
2.78841507296442e-05
0.0209409971371916
0.0334238019109996
0.0418541101237718
0.0532866118897762
0.055368628471545
0.0573855820351436
0.0549689556455802
0.0609175744506709
0.0586682529650029
0.061484552180511
0.0673495185336562
0.0737814626166132
0.0742647878945325
0.0802134066996235
0.0859947206007665
0.081979402907348
0.0857623526786993
0.0845447447670011
0.0853626798527354
0.0901773431980828
0.0901773431980828
0.0909116258318695
0.0916923820499913
0.0901773431980828
0.0945458601330728
0.106443097743267
0.104258839275716
0.106573223779552
0.102474253634185
0.10570881510947
0.10558798378995
0.108144030932815
0.11067219392492
0.11067219392492
0.110858088262595
0.116806707067663
0.118870134215655
0.124604974532428
0.123582555675276
0.122969104361022
0.126054950366172
0.127904599025856
0.133853217830942
0.127068074506389
0.131641075212832
0.131204223519284
0.140926497378896
0.147562925233226
0.150537234635812
0.155760865523961
0.15684834739929
0.159859835669329
0.165334423913426
0.177231661523505
0.183877384094733
0.178393501133872
0.184342119938969
0.192028850801119
0.200338327694468
0.211724355876027
0.217245417704472
0.226382124400388
0.232330743205467
0.23935754916896
0.252425921106335
0.258374539911398
0.266312228129421
0.274370747666904
0.284418336617335
0.29036695542241
0.300414544372834
0.312441908019372
0.319719671338657
0.324999070528184
0.328698367847541
0.336115551920127
0.34429490277707
0.352511432501596
0.352511432501596
0.358051083763836
0.360709372792331
0.360709372792331
0.357818715841751
0.351870097036653
0.345921478231613
0.348170799717249
0.335948247016255
0.323976651671012
0.300656207011804
0.283944306056265
0.265364167007352
0.244711306093456
0.225973156857538
0.207662564598162
0.186089526712889
0.161030969996486
0.147191136557899
0.121454065508947
0.106879949436686
0.0978454846263933
0.0799996282112718
0.075593932408712
0.0577108971260198
0.0443450942483719
0.0383964754433313
0.0324478566382335
0.0264992378331939
0.0205506190280968
0.020494850726837
0.020494850726837
0.0218890582592863
0.0213499646800359
0.0173904152879551
0.023339034093036
0.0198999888463154
0.0163958805814696
0.0122969104361022
0.0122969104361022
0.0161913968100626
0.0106517455478127
0.0116927538387314
0.0040989701453674
0.00719411086740014
0.0040989701453674
0.0040989701453674
0.0081979402907348
0.0104937353608398
0.0122969104361022
0.0122969104361022
0.00480536862847539
0.00559541956354386
0.00485184221288615
0.0040989701453674
0.0040989701453674
0.0122969104361022
0.00975015801018214
0.00439640108565142
0.0081979402907348
0.01219466855042
0.00584637691935977
0.0153920511581662
0.0109491764880746
0.0081979402907348
0.0122969104361022
0.0122969104361022
0.00764955199463395
0.00889504405698164
0.0163958805814696
0.0163958805814696
0.0125478677919299
0.0147971892776024
0.0122969104361022
0.0122969104361022
0.0122969104361022
0.011497564784175
0.010846934602382
0.0081979402907348
0.0104472617764173
0.00819794029074663
0.00634829163101618
0.011497564784149
-0.00144997583375477
0.00250027884148654
0.00714763728294478
0.0040989701453674
0.00754731010890862
0.00159869130386902
0.00434992750122882
0.0081979402907348
0.00424768561547102
0.0081979402907348
0.00464735844144054
0.0040989701453674
0.00724987916869122
0.0081979402907348
0.0081979402907348
0.0081979402907348
0.0081979402907348
0.0081979402907348
0.0081979402907348
0.0081979402907348
0.0081979402907348
0.0081979402907348
0.0111443655425859
0.0081979402907348
0.0081979402907348
0.0108004610179594
0.0119437111945136
0.00599509238947402
0.0122039632673485
0.0100011153660326
0.0122969104361022
0.00140350224933309
0.00735212105441983
0.00719411086736555
0.0040989701453674
0.00759378369332939
0.00655277540247988
0.00778897274785349
0.00205413243114204
0.0158103134179
0.0106424508309297
0.0117020485556143
0.0122969104361022
0.0122969104361022
0.0122969104361022
0.0122969104361022
0.0081979402907348
0.0081979402907348
0.0122969104361022
0.0122969104361022
0.00854184481540682
0.0081979402907348
0.0115533330854672
0.00930401159983029
0.0152526304048699
0.015689482098338
0.0122969104361022
0.0163958805814696
0.0142395062646296
0.00829088745953307
0.0081979402907348
0.00459159014013519
0.0081979402907348
0.00499126296610562
0.00915529612968237
0.00948990593744254
0.0081979402907348
0.00579060861804466
0.0040989701453674
0.0061066289920871
0.00434063278431318
0.00658995426998462
0.000641335464909623
0.0040989701453674
0.0040989701453674
0.0040989701453674
0.0040989701453674
0.00369000260252579
0
0.00410826486223858
0.0081979402907348
0.00448934825446019
0.00965721084137245
0.00898799122579235
0.0122969104361022
0.0152061568204482
0.0157359556827605
0.0122969104361022
0.0122969104361022
0.0101870097036848
0.00423839089858801
0.0105866825296486
0.0081979402907348
0.0122969104361022
0.00913670669589536
0.0081979402907348
0.00543740937649657
0
0
0
0
0
-0.00156151243632784
-0.000687809049330394
0
0
-0.00228650035330864
-0.0122969104361022
-0.0115719225191593
-0.00188682752722283
-0.00812358255574898
-0.0150574413502976
-0.0081979402907348
-0.00947131650367026
-0.0040989701453674
0
-0.00572554559993002
-0.0040989701453674
-0.00656207011936198
-0.00798416180241036
-0.00616239729339337
-0.0121110160984619
-0.00653418596867836
-0.000585567163604151
-0.00536305164145341
-0.00508421013493539
-0.00172881734023298
-0.0081979402907348
0
-0.00462876900774162
-0.0081979402907348
-0.0081979402907348
-0.00443357995315563
-0.00864408670119405
-0.0163958805814696
-0.00521433617134577
-0.0081979402907348
-0.00891363349074842
-0.00973156857641547
-0.0040989701453674
-0.0040989701453674
-0.0040989701453674
-0.00996393649849384
-0.00868126556861958
-0.0081979402907348
-0.0081979402907348
-0.0040989701453674
-0.00973156857645274
-0.00466594787523401
-0.0081979402907348
-0.0081979402907348
-0.00618098672713118
-0.00023236792206199
-0.0040989701453674
-0.000632040748025832
-0.00121760791166367
-0.00103171357399059
-0.0040989701453674
-0.0040989701453674
-0.00368070788564368
0
-0.00408038071161321
0
0
-0.00263040487784596
0
0
0
-0.00200765884677855
-0.0122969104361022
-0.0040989701453674
-0.0040989701453674
-0.000130126036337596
0
0
-0.00277912034799479
0.00950849537127228
0.013217087407511
0.0191657062125899
0.020494850726837
0.0252351563371386
0.032670929843459
0.0267223110383914
0.0245938208722044
0.0163958805814696
0.0129754247685506
0.00761237312709411
0.0194166635684256
0.00665501728819301
0.0026211101609922
0.00447075882066968
0.00597650295570735
0.0040989701453674
0.00182176450906361
0.00777038331415538
0.00677584860763504
0.000827229802548945
0.0040989701453674
0.00122690262851938
-0.00347622411419623
-0.0024723946908785
-0.00387589694016099
-0.00207272186490898
-0.0158660817191973
-0.0139699594750407
-0.0163958805814696
-0.0110235342231332
-0.0144439900360976
-0.0146484738074688
-0.0109212923374532
-0.0122969104361022
-0.0122969104361022
-0.0081979402907348
-0.0101219466855246
-0.00852325538164015
-0.00667360672190879
-0.0108469346023638
-0.0152712198386083
-0.0122969104361022
-0.0115719225192048
-0.0081979402907348
-0.00442428523630097
-0.0081979402907348
-0.01222255270107
-0.0122969104361022
-0.0159218500204678
-0.0273450570695587
-0.0295664944045431
-0.00331821392716816
0.0264248800982306
0.04969885117303
0.106991486039465
0.183710079191076
0.319022567572718
0.520736513365979
0.702225155221596
0.846460571810866
0.930884485258124
0.811512436330283
0.476688850057552
0.182529650146144
0.00912741197913977
-0.0737814626167643
-0.102502137784822
-0.112205822210657
-0.137506041565856
-0.133788154812721
-0.134494553295833
-0.123833513031154
-0.105987656615777
-0.0765512882475421
-0.0390749897758171
-0.0193794847009944
-0.00197047997912415
0.0119344164777463
0.0269639736773525
0.0174368888724177
0.020494850726837
0.0236736439008238
0.0277633193292792
0.0245938208722044
0.0281629921551857
0.0293527159163209
0.040989701453674
0.040989701453674
0.0486485481653084
0.0450886715990414
0.0519481726586469
0.0573855820351436
0.0543555043312768
0.0540673681079782
0.0521247722793953
0.046231921775581
0.0618470461389745
0.0696639030375192
0.0619214038739873
0.0684277056920024
0.072350076216649
0.0696824924712458
0.0696824924712458
0.0668011302375548
0.0668476038219059
0.0737814626166132
0.0740138305387034
0.0778804327619806
0.0778804327619806
0.0836617466632048
0.0860783730527154
0.0873610439825501
0.0964419823770966
0.0942763133434502
0.0942763133434502
0.0947596386213563
0.100708257426396
0.102474253634185
0.104407554745858
0.106573223779552
0.11220582221057
0.111387887124867
0.111806149384664
0.111787559950871
0.121072982116823
0.131167044651757
0.131501654459573
0.139634531732103
0.143463955087859
0.143463955087859
0.154366657991625
0.155760865523961
0.162229988474428
0.164944045804262
0.176562441908046
0.189138193850533
0.195086812655572
0.205134401605986
0.211083020411136
0.220916830873247
0.228715098337961
0.24061233594804
0.247174406067514
0.2562088708777
0.270532029594248
0.270532029594248
0.280477376659158
0.299698851172884
0.299336357214382
0.315295386102415
0.319719671338657
0.325305796185312
0.324580808268433
0.329005093504688
0.334953712309813
0.339526713016136
0.336115551920127
0.332016581774759
0.334154366657885
0.332128118377328
0.320342417369818
0.304857419042964
0.299308473063598
0.281462616648476
0.267715730378725
0.247081458898759
0.224365170836669
0.207690448748708
0.179936424136428
0.164079637134223
0.136827527233121
0.121379707774009
0.105113953228908
0.0889876194370915
0.0769602557904656
0.061484552180511
0.0535654533962371
0.0402089452355485
0.0305517343941397
0.0327824664460964
0.0268524370747424
0.0245938208722044
0.0149551994646214
0.00900658065950623
0.0112559021452014
0.00530728334016092
0.00345763468047049
0.00249098412466738
0
0.00209131129864528
0.0040989701453674
0
0
0
0
0.0040989701453674
0.0040989701453674
0
0
0
0
0
-0.00255604714283388
0
-0.00181246979211155
0.0040989701453674
-0.00074357735060492
-0.0040989701453674
0
-0.00219355318437153
-0.0040989701453674
-0.0040989701453674
-0.0040989701453674
-0.00270476261292447
-0.00324385619211695
-0.000994534706450015
-0.00125478677915695
0.00350410826485124
0
0
0
0
0
0
0
-0.00309514072202637
-0.00325315090903624
0
0
0
-0.00405249656096392
0.00189612224412957
0.0040989701453674
0
0
-0.0040989701453674
-0.0011525448934298
-0.000697103766242399
-0.0040989701453674
-0.0117020485556447
-0.00195189054535839
-0.0039967282596812
-0.0040989701453674
-0.0040989701453674
-0.00275123619728699
0
0
0
0
0
-0.000148715470129722
-0.00210060601556548
0
0
0
0
0
-0.0040989701453674
-0.00144997583372747
-0.00039967282594655
-0.00184964865968472
-4.00467850870233e-14
-0.0040989701453674
-0.000399672825982045
-0.0040989701453674
-0.000799345651887639
-0.0081979402907348
-0.0081979402907348
-0.0081979402907348
-0.00569766144918363
-0.000250957355855965
-0.0040989701453674
-0.0040989701453674
-0.0040989701453674
-0.00764955199466308
-0.00540023050896788
-0.0113488493140075
-0.0040989701453674
-0.0040989701453674
-0.0040989701453674
-0.00174740677402332
-0.0081979402907348
-0.0062460497452954
-0.0040989701453674
-0.00664572257131749
-0.0040989701453674
-0.0081979402907348
-0.0081979402907348
-0.0081979402907348
-0.00559541956349992
-0.0081979402907348
-0.00599509238947948
-0.0122039632672224
-0.00688738521025151
0
-0.0040989701453674
-0.00084581923636848
-0.0040989701453674
-0.00695244822846073
-0.00759378369333667
-0.00900658065950987
-0.0122969104361022
-0.0102427780049375
-0.0081979402907348
-0.00654348068559125
-0.0040989701453674
-0.0122969104361022
-0.00298360411937173
-0.00171022790642991
-0.0081979402907348
-0.0081979402907348
-0.00589285050375324
-0.0040989701453674
-0.0040989701453674
-0.0040989701453674
-0.00970368442578776
-0.0122969104361022
-0.0152898092724387
-0.0122969104361022
-0.0130033089192284
-0.0138398334386712
-0.0122969104361022
-0.0144532847529941
-0.0244079265345978
-0.020494850726837
-0.0241012008773781
-0.0245938208722044
-0.0245938208722044
-0.020494850726837
-0.0233018552254504
-0.0251515038852391
-0.0286927910175718
-0.0245938208722044
-0.0286091385655758
-0.0327917611629392
-0.0286927910175718
-0.0286927910175718
-0.0356824181135504
-0.0266758374539049
-0.0254024612410559
-0.0286927910175718
-0.0250027884150329
-0.0286927910175718
-0.0245938208722044
-0.0264527642488004
-0.0212756069450353
-0.0219541212774515
-0.0245938208722044
-0.020494850726837
-0.020494850726837
-0.0163958805814696
-0.0163958805814696
-0.0163958805814696
-0.0163958805814696
-0.0124363311893864
-0.0198163363944823
-0.0245938208722044
-0.020494850726837
-0.020494850726837
-0.020494850726837
-0.020494850726837
-0.0163958805814696
-0.0163958805814696
-0.0165074171841188
-0.0224560359891602
-0.0284046547941998
-0.0286927910175718
-0.0286927910175718
-0.0316299215525455
-0.0256813027475059
-0.0212570175112095
-0.0245938208722044
-0.0242313269137384
-0.020494850726837
-0.020494850726837
-0.0245938208722044
-0.0209317024203005
-0.0217682269397834
-0.0261832174591177
-0.0276796668773555
-0.0217310480722264
-0.0239803695579234
-0.020494850726837
-0.0248075993604703
-0.0286927910175718
-0.0286927910175718
-0.0270290366955463
-0.0281072238539039
-0.0315276796668184
-0.0286927910175718
-0.0286927910175718
-0.0259787336878018
-0.0250585567163957
-0.0263784065137064
-0.0205599137450071
-0.0265085325500467
-0.0286927910175718
-0.0261088597241402
-0.0286927910175718
-0.0216102167527834
-0.0245938208722044
-0.0253095140722126
-0.0286927910175718
-0.0245938208722044
-0.0267594899059233
-0.0286927910175718
-0.0263598170799571
-0.0286927910175718
-0.020494850726837
-0.020494850726837
-0.021461501282662
-0.0217775216567072
-0.0210618284567555
-0.0270104472617951
-0.0244265159683089
-0.0184778971632675
-0.0241290850281728
-0.0229765401345414
-0.020494850726837
-0.020494850726837
-0.0174275941554376
-0.0155779454957361
-0.00696174294528718
0.00041826225971231
0.0040989701453674
0.00821652972454061
0.0122969104361022
0.0122969104361022
0.00935977990110507
0.000780756218121878
0
0
-0.000669219615548158
-0.00158010187004956
0
0
-0.00396884410896703
-0.00647841766734647
-0.0040989701453674
-0.00541881994273455
-0.0081979402907348
0
-0.00553965126226569
-0.0194538424359617
-0.00992675763099054
-0.0122969104361022
-0.0162378703945125
-0.0128545934490823
-0.0138677175892844
-0.0198163363944212
-0.0193237163995613
-0.0133750975945199
-0.0163958805814696
-0.0190169907424708
-0.020494850726837
-0.018273413391815
-0.0163958805814696
-0.0163958805814696
-0.023738706919045
-0.0231717291891119
-0.0237665910696035
-0.0286927910175718
-0.0258207235007118
-0.0239710748410396
-0.018022456036
-0.0243707476670563
-0.0184221288619047
-0.0203182511060741
-0.0147228315425603
-0.0122969104361022
-0.0122969104361022
-0.0122969104361022
-0.0231159608877764
-0.035515113209593
-0.0258486076511211
0.00984310517911652
0.0454604602743111
0.0828995798784136
0.155305424397263
0.270225303937613
0.453479942000465
0.660482581699292
0.806223742424859
0.923969215897433
0.891744432464261
0.59877495631603
0.273459865410077
0.0638639997017128
-0.0441220210431855
-0.0986820091457151
-0.102474253634185
-0.125051120943
-0.131362233706296
-0.118870134215655
-0.121816559467421
-0.102641558537915
-0.0727218648919376
-0.0410826486226029
-0.013412276461761
0.00325315090909358
0.00472171617651581
0.0106517455477824
0.019472431869753
0.0245938208722044
0.0245938208722044
0.0286927910175718
0.0309699966539048
0.0327638770122496
0.0343253894486572
0.044716882923708
0.0450886715990414
0.0450886715990414
0.0491876417444088
0.0521154775625151
0.0573855820351436
0.0573855820351436
0.0576644235416482
0.0636130423466878
0.0655835223258784
0.061484552180511
0.0650630181804553
0.0669126668401293
0.0728612856451689
0.0737814626166132
0.0737814626166132
0.0778804327619806
0.0802598802839742
0.0860783730527154
0.0860783730527154
0.0860783730527154
0.0876584749227813
0.0901773431980828
0.0942763133434502
0.0882161579357869
0.0917388556343593
0.0957448786109324
0.094657396735682
0.100606015540722
0.106554634345761
0.104742164553619
0.102474253634185
0.112103580324896
0.111490129010639
0.112735621072889
0.118870134215655
0.127700115254438
0.131167044651757
0.135498382719156
0.139364984942492
0.143296650183978
0.145146298843652
0.147562925233226
0.154227237238367
0.162992155258887
0.165724802022423
0.174889392868967
0.181321336952083
0.1885526266869
0.196834219429571
0.200849537123003
0.208415436665778
0.224411644421243
0.226159051195199
0.237043164664983
0.251905416960919
0.262334089303514
0.267501951890409
0.275634829162874
0.291296427110692
0.295125850466453
0.29869502174949
0.310592259359569
0.312906643863536
0.322089824143862
0.333987061753941
0.337379633416231
0.329674313120145
0.342649737888851
0.344313492210862
0.346349035208197
0.344527270699111
0.34594936238229
0.348412462356229
0.343077294865456
0.334042830055163
0.321309067925521
0.300777038331229
0.285180503401806
0.259099527828163
0.241727701973956
0.223881845558838
0.206035989143719
0.185215823325944
0.155472729300374
0.137190021191856
0.125292783581777
0.107920957727662
0.0841264825071158
0.0775922965385922
0.0673681079674314
0.0574971186377782
0.0433505595418855
0.040989701453674
0.0286927910175718
0.0286927910175718
0.023655054466978
0.020494850726837
0.0199557571476318
0.0163958805814696
0.0163958805814696
0.0163958805814696
0.0125571625088247
0.0163958805814696
0.0163958805814696
0.0134866341971454
0.0133565081607542
0.0081979402907348
0.00555824069596553
0.00448934825448295
0.0081979402907348
0.00410826486227485
0.00552106182845115
0.0122969104361022
0.0137375915529623
0.0131055508049373
0.0122969104361022
0.00940625348547644
0.0081979402907348
0.0131799085399403
0.0161542179425552
0.0143882217348003
0.0203368405398399
0.0212105439268543
0.0128545934491205
0.01768784622824
0.020494850726837
0.020494850726837
0.020494850726837
0.020494850726837
0.0181525820723221
0.0245938208722044
0.0207086292152206
0.0201881250697415
0.0215079748670336
0.019788452243729
0.0200208201659475
0.0141837379633777
0.020494850726837
0.020494850726837
0.0163958805814696
0.0142023273970985
0.0163401122801996
0.0187009703684348
0.0127523515633952
0.0177900881138884
0.020494850726837
0.020494850726837
0.020494850726837
0.020494850726837
0.020494850726837
0.020494850726837
0.020494850726837
0.020494850726837
0.0114882700673599
0.0198906941294543
0.0192493586645475
0.0163958805814696
0.020494850726837
0.0177993828307818
0.0159497341711096
0.0122969104361022
0.0163494069970142
0.0122969104361022
0.0122969104361022
0.0040989701453674
0.00744506822326065
0.00519574673756909
0.00525151503886091
0.0034018663791689
0
0.0040989701453674
0.00195189054542302
0
0
0.0035970554337119
0.0081979402907348
0.0050005576830459
0.0040989701453674
0.00130126036358501
0.00464735844145641
0.0081979402907348
0.00790050935036978
0.00199836412985471
0.00794698293489431
0.00569766144919911
0.0116462802543385
0.0110978919581752
0.0081979402907348
0.0130962560880062
0.0137468862698181
0.00859761311673232
0.0100475889504325
0.0081979402907348
0.00634829163103369
0.00779826746480463
0.0122969104361022
0.0122969104361022
0.00514927315311628
0.0110978919582443
0.0040989701453674
0.0040989701453674
0.0040989701453674
0.0040989701453674
0.0119994794958719
0.00649700710117594
0.00764955199459846
0.00689667992708244
0.0040989701453674
0.00909952782836415
0.0122969104361022
0.00359705543364455
0
0.0122969104361022
0.00839312934535082
0.000297430940211467
0.00565118786483658
0.0081979402907348
0.0081979402907348
0.00519574673752927
0.0048518422129089
0.0055954195635211
0.0044521693868859
0.0081979402907348
0.00414544372975541
0.0040989701453674
0.00775179388032561
0.0067944380414319
0.0040989701453674
0.0040989701453674
0.00695244822839611
0.0047031267427199
0.0081979402907348
0.0040989701453674
0.0040989701453674
0.0040989701453674
0.00575342975056192
0.0081979402907348
0.00945272706990814
0.0154013458749477
0.00734282633746797
0.0040989701453674
0.0081979402907348
0.00358776071677171
0.000111536602678295
0.0081979402907348
0.00444287467005126
0.0040989701453674
0.0040989701453674
0.00110607130908184
0.0100104100828791
0.00678514332457333
0.00255604714284936
0.00789121463358064
0.0040989701453674
9.29471688688475e-05
0
0
0.00135702866490049
0.000892292820794712
0.00314161430637341
0.00280700449866618
0.00708257426479283
-0.002407331672645
0.000158010187066301
0.0040989701453674
0.000241662638956702
0
0
0.0040989701453674
0.00104100829088439
0.00490761051415521
0.00288136223366367
0.00122690262864393
0.0145555266386557
0.0122783210023856
0.0040989701453674
0.00780756218168842
0.00263969959474158
0.00330891921029802
0.00515856787000033
0.00528869390634328
0.00885786518943294
0.00978733687773186
0.00435922221804993
0.0081979402907348
0.00423839089859877
0.00990816819717563
0.0122969104361022
0.0122969104361022
0.0122969104361022
0.0154849983269565
0.00953637952191686
0.00870914971934144
0.00993605234782336
0.00842101349590572
0.0163958805814696
0.0163958805814696
0.0148343681451184
0.0122969104361022
0.011135070825774
0.0112094285608207
0.0156337137970443
0.0149087258801997
0.015670892664665
0.0104100829088722
0.00823511915823901
0.0081979402907348
0.0081979402907348
0.0122969104361022
0.0155593560620377
0.020494850726837
0.0176320779269245
0.0129103617503369
0.0139327806074618
0.0122969104361022
0.0122969104361022
0.0201230620514162
0.020494850726837
0.020494850726837
0.020494850726837
0.020494850726837
0.020494850726837
0.020494850726837
0.0200301148827094
0.0163958805814696
0.020494850726837
0.0185801390489419
0.0201602409190369
0.0245938208722044
0.0144997583372219
0.0115440383686317
0.020494850726837
0.020494850726837
0.020494850726837
0.0208108711008749
0.0245938208722044
0.0245938208722044
0.0228278246644008
0.0241104955943128
0.0245938208722044
0.0245938208722044
0.0347250622746911
0.040989701453674
0.0462226270587473
0.0557032382793014
0.0534539167937263
0.0573855820351436
0.0535189798118491
0.0516693311521769
0.0422537829496688
0.0368907313083066
0.0399579878796716
0.0418076365393456
0.0424210878536218
0.040989701453674
0.040989701453674
0.0368721418745645
0.0346599992564066
0.0368907313083066
0.0327917611629392
0.0294735472357574
0.0317228687214222
0.0257742499162965
0.0252630404877845
0.0261739227423195
0.020494850726837
0.0226140461761846
0.0245938208722044
0.0129568353348204
0.0117671115737316
0.0122969104361022
0.0122969104361022
0.0113767334647053
0.00542811465966567
0.00767743614524437
0.00646912295053003
0.0121760791166348
0.0081979402907348
0.0081979402907348
0.0040989701453674
0.00751942595827454
0.00995464178167831
0.0040989701453674
0.0081979402907348
0.0081979402907348
0.000371788675284257
0.00854184481540658
0.00822582444135705
0.0141186749451522
0.0090530542440253
0.0110421236568768
0.00658065955301173
-0.00614380785961558
-0.00368070788571334
0.0393817154327817
0.0631761906533353
0.0962839721902178
0.151894263300443
0.230992303973543
0.391326170205876
0.612289474662623
0.794521693868364
0.925391307579235
0.977097817599326
0.769760568092095
0.416310369186776
0.178551511320304
0.0193051269651585
-0.0604807227572582
-0.0854277428708829
-0.0977990110418624
-0.100550247239348
-0.0842287243930468
-0.0901773431980828
-0.0716064988660721
-0.0486113692974354
-0.0191935903631501
0.00460088485700834
0.0122969104361022
0.0288229170542816
0.0632133695208395
0.0546343458378147
0.0556381752610857
0.0636316317803589
0.0489088002378478
0.0596906718220906
0.0665036992973864
0.0457950700823624
0.0695895453025207
0.0778804327619806
0.0689017362531694
0.0719132245232678
0.081979402907348
0.078902851619101
0.061484552180511
0.077545822954333
0.0934211993901524
0.0883555786890365
0.0942484291928243
0.0939324088187857
0.102102464958904
0.099853143473211
0.0991467449901194
0.109807785254756
0.0954474476703818
0.0860504889021314
0.104045060787416
0.110393352418471
0.0959307729483953
0.0980127895304262
0.114129828605337
0.115291668215774
0.113330482953524
0.131585306911551
0.131548128044001
0.110532773171796
0.128657471093512
0.132226642376352
0.122969104361022
0.124948879057045
0.130897497862196
0.132105811056887
0.123638323976598
0.129986615607661
0.139188385321806
0.163958805814696
0.163958805814696
0.168438859352231
0.169926014053527
0.172138156671692
0.16622671673413
0.17868163735712
0.177491913596263
0.185280886344236
0.199817823548997
0.190987842510279
0.19991077071764
0.222208796520016
0.221112019927763
0.231819533776713
0.261664869687742
0.257500836524471
0.258802096887995
0.25926683273207
0.276796668773239
0.291909878425
0.295125850466453
0.296092501022243
0.303323790757188
0.312274603115821
0.352279064579551
0.341478603561631
0.340214522065494
0.340214522065494
0.346581403130328
0.349527828382191
0.359975090158621
0.356610402646964
0.373675502844041
0.381204223519168
0.373136409264868
0.364808342937699
0.368442577238942
0.356554634345687
0.338708777930568
0.321848161504737
0.307116035245343
0.286927910175718
0.286927910175718
0.278172286871841
0.244042086477632
0.186377662936314
0.179564635461347
0.131975685020238
0.132403241997215
0.132180168791993
0.113098115031416
0.106573223779552
0.0961910250211633
0.0710209317023714
0.0655835223258784
0.0636966947986447
0.061484552180511
0.0477004870431352
0.0517622783209402
0.0437502323679833
0.00813287727227158
0.00685020634275815
0.0230323084358569
0.0120087742127693
0.0167490798231811
0.0285812544149918
0.0088206863219178
0.0112744915788962
0.0218332899580227
0.0245938208722044
0.018273413391795
0.0413243112612247
0.0577108971257049
0.0136818232514975
-0.00805851953749979
-0.000120831319552984
0.0117764062907444
0.0040989701453674
0.0144161058853916
0.0239338959736537
0.00317879317388788
0.0138770123062482
0.0178551511320918
0.0242034427631544
0.0137747704204739
0.0081979402907348
0.0040989701453674
0.0114789753503469
0.0122969104361022
0.0254582295424351
0.00709186898166206
0.00047403056095134
0.0286927910175718
0.0137468862696385
0.00627393389601048
0.0368070788564089
-0.0105587983784129
-0.00143138639982337
0.0152805145555349
0.0233018552254995
0.0110700078077058
0.0081979402907348
0.0109398817712053
0.00770532029595581
0.011125776108721
0.020308956389092
0.00841171877901283
0.000306725657150515
0.0112837862957745
0.0265735955683351
0.014778599843752
0.0059857976725784
0.0126779938283939
-0.0015057441349847
0.0116091013867272
0.0106796296984465
0.0204390824255033
0.0128081198646906
0.0081979402907348
0.0136911179685342
0.0163958805814696
0.0142859798491532
0.0290274008254356
0.0105123247945892
0.00244451054017652
0.0122969104361022
0.0143417481503722
0.0125013942075274
0
0.0139792541920815
0.0139048964567849
0.0081979402907348
0.0139885489087409
0.020494850726837
0.0131892032569279
0.0227906457969238
0.0204483771424454
0.0144997583373519
0.00480536862839711
0.0208852288359416
0.0253466929397423
0.0152991039893041
0.0122969104361022
-0.000697103766229657
0.00354128713233817
0.0198999888464068
0.00800275123611149
0.0200858831840376
0.015252630404909
0.011794995724383
0.0136446443841717
0.022790645796953
0.0154478194594249
0.00949920065438534
0.000548388296138162
0.0136911179686234
0.0323456147525828
0.014499758337464
0.0120459530803074
0.0113953228985038
0.0198442205450263
0.00050191471177746
-0.00210060601549048
0.0122969104361022
0.0122969104361022
0.0159962077555358
0.0122969104361022
0.00819794029070567
0.00594861880506872
0.0118972376101083
0.0081979402907348
0.0081979402907348
0.00924824329850662
0.0122969104361022
0.0081979402907348
0.0081979402907348
0.00844889764657893
0.0185987284826512
0.0285440755473929
0.00719411086727271
0.00355058184928385
0.00540023050895605
0.0081979402907348
0.0113953228984201
-0.00555824069603691
-0.0174833624568822
0.0158567870020332
0.0284883072460629
0.0126872885451304
0.0117020485555651
0.0117392274232586
-0.00610662899215022
0.00576272446748576
0.017492657173664
0.00895081235821259
0.00969438970887824
0.0092575380154432
0.013886307023112
9.29471689070735e-05
0.012789530430792
0.0081979402907348
0.0108934081867864
0.0016916384727588
0.00100382942332133
0.0040989701453674
0.00470312674275369
0.0081979402907348
0.00389448637388579
0
0.00780756218165202
0.013086961371208
0.0046938320258322
0.00694315351150868
0.00720340558426572
0.00648771238432856
-0.00270476261295219
-0.00728705803614156
0
0.00421050674791463
0.00658065955309683
0
0.00518645202065253
-0.01006617838414
-0.00598579767263567
0
-0.00339257166225395
0.00511209428557129
0.0126036360932014
0.0142395062645905
0.000278841506448176
-0.00058556716365512
0.00770532029589756
0.0081979402907348
0.0146112949399821
0.0103821987582453
-0.00151503885183391
-0.0070825742646909
0
0.00047403056100777
0.0163122281294518
0.020494850726837
0.00996393649840374
-0.00691526936087733
0.00651559653485433
0.00618098672708977
0
-0.0026582890285128
-0.0073800052050996
0.00225861620255399
0.00822582444146808
0.0167769639736668
-0.00995464178144167
0.00173811205704694
0.00898799122575139
0.00105959772465561
0.0128267092983508
0.00753801539208344
0.00660854370379052
0.0161356285087417
0.00807710897130196
0.00013942075329508
0.0122969104361022
0.00517715730377057
0.00131055508047244
0.0135795813658013
0.0218611741085066
0.0040153176933878
0.00358776071682447
0
0.00421050674800383
0.0101591255530452
0.00467524259213691
0.00566048258165484
0.00137561809862161
0.00116183961038094
0.00711045841542054
0.00667360672201528
0
-0.00446146410382066
-0.00377365505448389
0
-0.000474030561059469
0.0150853255010409
0.0108841134699026
0.00167304903899122
0
-0.00572554559992693
-0.0040989701453674
-0.0040989701453674
0.00388519165711242
-0.010317135740188
-0.0126686991114174
-0.0016637543220146
-0.0111257761089407
-0.00566977729851861
0.00622746031156423
0.00323456147528049
0.00271405732983625
0.00866267613491521
0.00766814142839698
0.00416403316352481
0.00436851693496675
0
0.0107818715841773
0.0115626278023319
0.0163958805814696
0.013430865895779
0.00338327694537198
0
0.00504703126731705
0.0142302115477067
0.000250957355796804
0
0.00361564486741213
0.0218611741086722
0.0374577090382342
0.0431553704874169
0.0340744320928222
0.0251607986021101
0.0262761646279939
0.020494850726837
0.020494850726837
0.0166282485034981
0.020494850726837
0.0170279213295145
0.0176134884930969
0.0235621072982236
0.0278748559318474
0.027261404617601
0.0278562664981727
0.0227627616462732
0.020494850726837
0.0242313269137675
0.0286927910175718
0.0134587500464943
0.0115161542179694
0.0133658028776416
0.0163958805814696
0.00342975052983198
0.00251886827530509
0
0
0
0
-0.0142766851321984
-0.00833736104403898
0
-0.0122969104361022
-0.00398743354273643
0.00767743614530808
0.00646912295046632
-0.00060415659760109
-0.0145834107892597
0.00326244562586451
0
0
0
0.00302078298693693
0.0081979402907348
0.010819050451725
0.0201230620515
0.00973156857644186
2.78841506859563e-05
-0.0136632338178489
-0.0241662638956119
0.0168977952930851
0.0475331821391815
0.0665873517489321
0.131613191062464
0.200747295237244
0.30774807599265
0.507881919918417
0.701574525040481
0.852446369483215
0.95037550656141
0.9004256980339
0.59328177863487
0.274435810685011
0.0897033126376229
-0.0231066661712617
-0.0655835223258784
-0.0679072015466148
-0.0947968174887386
-0.117197085176718
-0.0955775737069114
-0.0871286760604654
-0.0684834739934243
-0.037615719225221
-0.022744172212423
0.00434992750127524
0.0297430940253072
0.0372160463991739
0.0366397739523805
0.0368163735732581
0.0509629326690325
0.0532866118897762
0.0491876417444088
0.0556381752611876
0.060508606907815
0.0573855820351436
0.0532866118897762
0.0532866118897762
0.0577387812766766
0.0696360188867558
0.0737814626166132
0.0868591292709501
0.0560378480871815
0.0397349146741712
0.0748131761906905
0.0778804327619806
0.0752035542997039
0.0742090195931965
0.0778804327619806
0.0697103766219227
0.0794140610476604
0.0823511915826941
0.0875562330370834
0.0868498345539644
0.0953545005018716
0.101303119306911
0.0970182548239823
0.0952336691824569
0.0907350262110665
0.104760753987321
0.0987377774474001
0.104203070974446
0.106573223779552
0.114771164070287
0.114771164070287
0.123898576049354
0.127068074506389
0.134206417072503
0.119929731940441
0.110542067888516
0.110532773171705
0.122430010781784
0.134327248391867
0.146224486002141
0.151661895378594
0.142571662267132
0.129410343160766
0.149886604453982
0.164720972599138
0.172156746105431
0.168076365393866
0.177649923783197
0.188134364427192
0.185885042941497
0.201676766925443
0.200849537123003
0.203730899356734
0.215042569803212
0.230406736810623
0.233873666207961
0.241904301594912
0.257733204446471
0.268115403204661
0.270532029594248
0.285394281890098
0.294159199910631
0.295125850466453
0.303323790757022
0.316587351749182
0.326151615421643
0.332183886678606
0.342147823177144
0.348096441982246
0.352511432501596
0.355894709446961
0.358878313566367
0.364808342937699
0.355876120013201
0.357679295088467
0.360374762984582
0.354426144179435
0.348477525374394
0.342528906569354
0.322043350559596
0.296399226679183
0.273125255604531
0.263477339480147
0.239961705766519
0.214903149049779
0.195979105476312
0.183338290515631
0.153753206677361
0.139792541919016
0.116425623675351
0.0996021861173723
0.0893315239618709
0.0686228947465164
0.0655835223258784
0.0548388296092363
0.0368907313083066
0.0368907313083066
0.024630999739765
0.0286927910175718
0.0212198386437617
0.0108097557348501
0.00152433356873772
0.0114603859166503
0.0146205896568823
0.0122969104361022
0.00975945272703134
0.0040989701453674
0.00623675502841525
0.00421050674801111
0.00931330631679691
0.00204483771420813
0.00535375692448067
0.0068316169090925
0.0081979402907348
0.00262111016096308
0
0
0.000139420753287798
0.00807710897128739
0.000780756218205612
0.00158939658693699
0.0040989701453674
0
0
0.0040989701453674
0.00145927055061087
0
0.00224002676877501
0.0163679964307145
0.0264341748150105
0.00655277540231667
-0.00243521582334552
0.0081979402907348
0.0051399784362213
0.00530728334011996
0.00538164107520667
0.0122969104361022
0.0079562776518313
0.00619028144405273
0.00425698033237727
0.0231624344721189
0.0186266126335938
0.00280700449860976
-0.00314161430642984
0.000892292820734642
0.00684091162585217
0.0127895304309303
0.0163958805814696
0.00829088745954176
0.0161821020930605
0.0167026062385779
0.0107539874335295
0.0115905119529797
0.0081979402907348
0.011190839127075
0.0115533330854572
0.010791166301052
0.01911923262831
0.00190541696095674
0.00808640368816572
0.0240826114436196
0.0323363200356353
0.00672008030616301
0.00238874223894659
0.0081979402907348
0.0110421236568688
0.0216845744879512
0.0238037699371132
0.0040989701453674
0.00614380785957371
0.000408967542756409
0
0
0.00534446220764602
0.00510279956869601
0.00325315090899528
0.00269546789604432
0.0122969104361022
0.0054095252258425
-0.00391307580758966
0.0160891549243355
0.0167490798230482
0.00520504145446247
0
0.00710116369854767
0.00115254489350625
0.000697103766185759
0.00155221771941276
-0.00380153920510796
0.00429415919986328
0.0081979402907348
-0.00349481354805028
-0.00100382942333648
-0.00404320184401187
-0.0122969104361022
-0.0081979402907348
-0.0081979402907348
-0.000548388296074451
-0.0040989701453674
-0.0040989701453674
-0.0040989701453674
-0.0040989701453674
-0.00159869130381896
-0.00754731010895657
0.00239803695582492
0.0051492731531465
-0.0261925121759906
-0.0115998066698145
-0.00119901847795979
-0.00554894597912581
0
-0.00224932148567722
0
-0.00144997583373111
-0.010698219132174
-0.00609733427525888
-0.00289995166749681
-0.00754731010893138
-0.00159869130389178
0
0.00630181804670736
0.00834665576086088
0
0.00355058184921832
0.00689667992709336
0.000948061122053766
0.000901587537618432
0.00134773394807677
-0.000501914711711929
-0.0040989701453674
-0.00420121203105815
-0.0081979402907348
-0.000594861880431511
0.00155221771945644
0.00750083652449604
0.00525151503880084
0.00519574673754201
0
0
0.000353199241515793
0.00189612224407295
0
0.0077053202959103
0.00864408670115673
-0.00960144254010157
-0.0025374577089853
-0.0040989701453674
-0.00124549206235144
0
0
0.0002044837714179
0.0040989701453674
0.00019518905449415
0
-0.017520541324279
-0.0170651001972408
0
-0.0131520243893581
-0.0109863553556134
0.000455441127232908
0.0040989701453674
0
0
0
-0.00150574413502022
-0.0040989701453674
-0.00598579767259296
0
-0.0040989701453674
-0.00154292300252897
-0.00440569580251063
-0.00604156597391937
-0.0040989701453674
-0.0081979402907348
0.00262111016100858
0.0040989701453674
0.000892292820807455
0
0
0.0040989701453674
0.00169163847273696
-0.00394095995831384
0.00200765884672576
0.000241662638969444
-0.00249098412466465
0
0.00362493958438876
0.00923894858163375
-0.0114882700673271
0.00509350485187931
0.00369000260249883
0
9.29471684556374e-06
0.0022400267687968
0
-0.0014592705506149
-0.0040989701453674
0.00105959772462201
0.0040989701453674
0
0.00250957355835941
0.00383871807269579
0
0
-0.0245938208722044
-0.00679443804169387
0
-0.00632040748039485
-0.00956426367259553
-0.00276053091417442
0
0
0
0.00196118526224674
0.0040989701453674
0.0081979402907348
0.00137561809870994
-0.0175577201918199
-0.0114603859165192
0
0.00522363088816949
0.0149459047479114
-0.00442428523624923
-0.00413614901288436
-0.0150574413503713
0.00278841506474752
0.00551176711161978
0.00167304903888565
-0.0081979402907348
-0.00533516749083322
-0.00758448897641193
0.000827229802622743
0.00388519165706753
-0.00206342714797207
-0.000185894337611916
-0.00166375432206557
-0.000585567163629635
-0.00252816299208513
-0.0081979402907348
-0.0032345614752277
0.0054281146596238
0.003169498457134
-0.0110421236569314
6.50630182101955e-05
0.00218425846748501
0
0.0051678625869299
0
-0.00111536602595289
-0.0040989701453674
-0.00748224709078457
-0.00153362828564882
0.000948061122081071
0.010131241402403
0.000167304903991958
0.0081979402907348
0.0118135851581997
0.0177622039632976
0.00264899431176553
-0.00723128973486795
0.00434992750123884
0.01752983604115
0.0294270736512292
0.0414916161654751
0.0492527047625571
0.0412220693757597
0.0434713908614549
0.0375227720563167
0.0352269769862993
0.040989701453674
0.0319738260772822
0.018022456035937
0.00209131129877088
0.0250306725656897
0.0245938208722044
0.0227255827787479
0.020494850726837
0.0190262854593401
0.0163958805814696
0.0174647730229738
0.0234133918280996
0.0286927910175718
0.0286927910175718
0.0194166635686289
0.0040989701453674
0.0080678142543763
0.0157359556827296
0.0133565081608652
0.00555824069592041
0
0.0100382942335032
0.0108562293193568
0.00052050414547769
0.013579581365967
0.0115719225193741
-0.0103264304569753
-0.000557683012919482
0.00662713313751078
0.0040989701453674
-0.00644123879976944
-0.000213778488265899
0.00998252593221865
-0.00262111016096672
-0.00372718147008168
0.00222143733506385
0.0040989701453674
0.00592073465440461
0.0118693534594442
0.014973788898415
0.00248168940768256
0.00205413243114471
-0.0155872402125016
0.00622746031204843
0.0558240695989362
0.0798880916086172
0.137571104583682
0.210850652489666
0.355941183032139
0.560155407665898
0.754526527120795
0.909190616054132
0.989664274825385
0.828410231624013
0.470377737295527
0.200273264676035
0.039651262222015
-0.0558798379001116
-0.0933003680706577
-0.0876027066215037
-0.100299289883684
-0.0920269918577732
-0.0920269918577368
-0.0921013495929419
-0.069106220024327
-0.0339628954901257
0.010874818752906
0.0124456259063302
0.0240454325761864
0.0250678514332249
0.0410175856042617
0.0459623749860849
0.0460646168717902
0.0520132356768298
0.0527103394430504
0.0540394839572048
0.0575621816559629
0.0635108004610025
0.0655835223258784
0.0770346135255575
0.081979402907348
0.0791073353905426
0.081979402907348
0.0885600624603324
0.0849908911773812
0.0627672231104194
0.0760586682529216
0.0696824924712458
0.0753150909022619
0.0931609473175701
0.102474253634185
0.0991467449901339
0.0890991560396927
0.0860783730527154
0.0908558575305358
0.0968044763355754
0.0980964419823797
0.0921478231772315
0.106089898501646
0.114771164070287
0.121928096070023
0.124409785477811
0.109333754693771
0.112531137301452
0.124428374911539
0.127597873368753
0.131167044651757
0.131167044651757
0.129187269955744
0.130897497862183
0.134624679332174
0.120208573446833
0.140545413986575
0.140433877384018
0.143463955087859
0.146094359965708
0.155760865523961
0.153530133472068
0.15982265680183
0.166663568427662
0.159859835669329
0.16252741941468
0.169702940848394
0.181386399970163
0.184453656541533
0.205273822358921
0.229542328140574
0.224978622151079
0.210999367959264
0.21281183775141
0.223761014239374
0.22840837268085
0.253885191656842
0.265466408893085
0.267316057552785
0.270532029594248
0.285245566419772
0.303323790757188
0.303491095661143
0.315388333271222
0.323502621109979
0.33355021006043
0.329348998029295
0.333587388927994
0.354379670595014
0.357344685280682
0.360709372792331
0.36037476298454
0.358794661114427
0.376845001300887
0.37175149644912
0.353905640034001
0.349797375171766
0.355745993976806
0.336273562106971
0.312479086886813
0.298639253448212
0.287820202996613
0.277614603858775
0.245993977023285
0.229969885117218
0.226270587797873
0.193460237200836
0.144244711305908
0.130153920511509
0.129410343161152
0.0985147042420329
0.0897404915045647
0.0815053723463275
0.0697940290737311
0.0838662304345689
0.0599230397440233
0.0368907313083066
0.0335539279473736
0.0338792430382079
0.0398278618433367
0.0389262743056692
0.0286927910175718
0.0325036249396191
0.0265550061344712
0.0245938208722044
0.0286927910175718
0.0251050303008183
0.0259322601033792
0.0286927910175718
0.0255325872773562
0.0370580362120437
0.0352734505705708
0.0222050786332869
0.0206342714800593
0.0265828902850989
0.0286927910175718
0.0122969104361022
0.0226140461760827
0.0181154032048998
0.0183756552775566
0.0189147488567128
0.0149366100308365
0.0201044726177979
0.0163958805814696
0.0245752314384696
0.0149737888984226
0.0081979402907348
0.0081979402907348
0.0114882700673053
0.0245287578540707
0.00362493958445975
0.00474030561033982
0.0106889244153794
0.0161542179425202
0.0143882217347238
0.0203368405397634
0.020494850726837
0.020494850726837
0.0110049447894101
0.0113395545971884
0.020494850726837
0.0177529092463792
0.0127895304308648
0.0163958805814696
0.0123898576049619
0.0202810722385335
0.0208015763840003
0.0163958805814696
0.0197884522437672
0.017539130758072
0.0234877495631153
0.017883035282678
0.0297802728929479
0.00716622671670508
0.000288136223330145
0.0162285756774303
0.0210060601553199
0.00546529352712619
-0.00959214782315406
-0.0025653418598278
0.00310443543885464
0
0.00118972376097952
0.0106424508309004
0.0124920994906891
0.0143510428672105
0.0122969104361022
0.0188496858386009
0.0163958805814696
0.0167583745398482
0.0112930810127366
0.0188032122542238
0.0122969104361022
0.0040989701453674
0.00639476521543969
0.00419191731412885
0.0160891549243158
0.0130033089191538
0.0081979402907348
0.0115440383685534
0.010103357251793
0.0040989701453674
0.0245938208722044
0.0169535635945371
0.016693311521672
0.0162006915268718
0.0122969104361022
0.0187474439528774
0.00200765884692781
0
0.00319738260772894
0.0274380042383056
0.0256998921814828
0
0
-0.000148715470107878
-0.00210060601558732
0.0153920511582466
0.00500055768298765
-0.00344833996354577
0.00239803695570114
0.0112466074283442
0.0122969104361022
0.00964791612448593
0.00859761311665587
0.0145462319217594
0.00819794029070567
0.00369929731937352
0.01559653492946
0.020494850726837
0.0171952262333809
0
0
0.013598170799615
0.0154942930437838
0.0120459530802708
0.0102985463062384
0.0201974197866783
0.0112930810126783
0.000548388296098115
0
0
0.00319738260769618
-0.00275123619734342
-0.00719411086743836
0
0.000102241885741716
0.00214707959995349
0
0.00155221771943503
0.0143045692829062
0.0163958805814696
0.0163958805814696
-0.00527010447240511
-0.0234877495630643
-0.0081979402907348
-0.0104007881919655
-0.000139420753393376
0
0.00365282373500008
0.0081979402907348
0.00494478938175772
0.00920176971413317
0.00944343235303163
-0.00181246979212612
-0.00493549466495949
0.0040989701453674
0.0040989701453674
0.000195189054554134
0
-0.00700821652977971
-0.00284418336615584
-0.0031044354388874
0
0
0
-0.00461017957391579
-0.00808640368820941
0.00190541696098905
0.0040989701453674
-0.00451723240508517
-0.0122969104361022
-0.00110607130903682
-0.0040989701453674
-0.00339257166226852
0.00255604714277472
0.00440569580245564
0.0125106889244712
0.0123898576049292
-0.00175670149084522
-0.000492619994849983
0.0122969104361022
-0.00373647618695237
-0.0286927910175718
-0.0174647730232202
-0.00055768301300921
-0.00169163847268599
0.00788191991676239
0
0
0.00160798602075554
0.0040989701453674
-0.00120831319473254
-0.00104100829087575
-0.00161728073765936
-0.00553965126223292
-0.000408967542806676
-0.0040989701453674
0.012287615719202
-0.00295571996869943
-0.00527010447273589
0.00263969959477656
0
0.00303937242072453
0.00290924638431506
-0.00131984979727724
0.00936907461812513
0.0230323084359024
0
-0.0039595493920614
-0.0146856526749869
-0.00161728073763751
0.00950849537119449
0.0122969104361022
0.00728705803618161
0.0040989701453674
0
0.00236085808820239
0.0040989701453674
0.00802134066995917
0.00467524259215875
0.0040989701453674
0.0040989701453674
0.0146205896568422
0.0144718741867526
0.0186823809345756
0.0234691601293004
0.00337398222848637
-0.00631111276348011
-7.43577351649778e-05
-0.00181246979220621
-0.000436851693488992
0.0040989701453674
0.0138863070229445
0.017455478305996
0.00247239469082971
0
0
0.00431274863371824
0.00407108599468144
-0.00782615161539775
-0.00243521582336372
0
0
0
0
-0.00271405732982351
0.000464735844167667
0.0040989701453674
0.00422909618165673
0.0142116221139735
0.012631520243864
0.001515038851914
0.0074636576569536
0.0081979402907348
0.0141279696620942
0.019063464326868
0.0148622522957589
0.0167119009554401
0.0248261887943374
0.0327081087109942
0.0327917611629392
0.0291761162955398
0.0218611741086577
0.0181618767892186
0.0142302115477048
0.020494850726837
0.0234598654124148
0.00672937502320152
0.000334609807743635
0.00618098672719078
0.00796557236869351
0.0147785998438321
0.00536305164148277
0.00531657805698191
0.00513068371936091
-0.000817935085708008
-0.00143138639998355
0
0
0
