-0.103185745140393
-0.107154427645793
-0.103572714182871
-0.104589632829362
-0.107154427645793
-0.103185745140393
-0.103185745140393
-0.103185745140393
-0.105606551475881
-0.107154427645793
-0.107154427645793
-0.107154427645793
-0.111123110151193
-0.10768538516921
-0.109674226061901
-0.112041036717085
-0.111123110151193
-0.108459323254161
-0.107154427645793
-0.107154427645793
-0.107055435565173
-0.103185745140393
-0.103185745140393
-0.103185745140393
-0.106479481641462
-0.102069834413254
-0.0992170626349934
-0.0992170626349934
-0.0992170626349934
-0.103185745140393
-0.103185745140393
-0.103185745140393
-0.105408567314625
-0.103185745140393
-0.103185745140393
-0.109485241180691
-0.106182505399576
-0.105948524118064
-0.105984521238309
-0.0992170626349934
-0.0994150467962602
-0.103185745140393
-0.106965442764583
-0.105552555795556
-0.0997930165586812
-0.104400647948152
-0.107154427645793
-0.107154427645793
-0.104535637149037
-0.0996580273577966
-0.103185745140393
-0.103131749460068
-0.0992170626349934
-0.102852771778243
-0.107154427645793
-0.103905687545019
-0.103185745140393
-0.108909287256991
-0.110439164866826
-0.104679625629969
-0.10377969762417
-0.111123110151193
-0.107244420446383
-0.111123110151193
-0.111123110151193
-0.116405687545
-0.109746220302412
-0.108081353491722
-0.108405327573808
-0.103185745140393
-0.103185745140393
-0.0992170626349934
-0.101160907127428
-0.106920446364288
-0.105597552195834
-0.10653347732181
-0.103185745140393
-0.103185745140393
-0.103185745140393
-0.105759539236854
-0.106758459323259
-0.103185745140393
-0.103185745140393
-0.103185745140393
-0.103185745140393
-0.101772858171366
-0.102420806335496
-0.0981911447084442
-0.0924316054715694
-0.0952483801295937
-0.0952483801295937
-0.0992170626349934
-0.0992170626349934
-0.0953833693304773
-0.100872930165584
-0.0997390208783523
-0.097948164146881
-0.0983081353491594
-0.102303815694759
-0.101889848812084
-0.102690784737237
-0.0969312455003783
-0.0953563714902722
-0.0992170626349934
-0.0992170626349934
-0.0977051835853287
-0.0919456443484714
-0.0963732901367912
-0.0963012958963416
-0.0959863210943133
-0.0992170626349934
-0.0952483801295937
-0.0931065514758923
-0.0873470122390307
-0.0895248380129678
-0.0873110151187942
-0.0833423326133945
-0.0833423326133945
-0.0873110151187942
-0.0873110151187942
-0.078185745140394
-0.0714362850971953
-0.0634989200863958
-0.0654967602591693
-0.0674676025917955
-0.0802375809934817
-0.0941144708423351
-0.100440964722811
-0.100170986321101
-0.0944114470842541
-0.0886519078473794
-0.0873110151187942
-0.0873110151187942
-0.0913426925845776
-0.0933945284377351
-0.0876349892008862
-0.0873110151187942
-0.0873110151187942
-0.085151187904989
-0.0851151907847094
-0.0905867530597693
-0.0873110151187942
-0.0876169906407409
-0.091279697624194
-0.091279697624194
-0.0935385169186621
-0.091279697624194
-0.0965712742980501
-0.0992170626349934
-0.0982811375090123
-0.0925215982721591
-0.0992170626349934
-0.0921976241900891
-0.0952483801295937
-0.0932955363571008
-0.0987670986321013
-0.0976511879049757
-0.091891648668118
-0.091279697624194
-0.091279697624194
-0.091279697624194
-0.091279697624194
-0.0869060475162022
-0.0833423326133945
-0.0872930165586773
-0.0833423326133945
-0.0869420446364333
-0.0898578113751082
-0.0873110151187942
-0.091279697624194
-0.0941054715622767
-0.104481641468653
-0.113561915046797
-0.109557235421281
-0.0750000000000337
-0.0481281497480976
-0.0104931605472081
0.0528617710580908
0.161501079913404
0.344627429805053
0.566063714902522
0.743115550755577
0.884134269258351
0.898218142548832
0.663570914327601
0.34085673146204
0.105507559395751
-0.0566774658025409
-0.146238300935743
-0.168952483801285
-0.189245860331103
-0.197687185025214
-0.191927645788362
-0.178230741540688
-0.172471202303829
-0.15094492440608
-0.118178545716368
-0.0929355651548175
-0.0766198704103759
-0.0682685385169294
-0.0625089992800616
-0.0567494600432081
-0.0555615550755963
-0.0579553635709063
-0.0593142548596125
-0.0555615550755963
-0.0555615550755963
-0.0460043196544428
-0.0436555075593971
-0.0476241900647968
-0.0476241900647968
-0.0388408927285994
-0.0357181425485976
-0.0427375809935571
-0.0357181425485976
-0.0357181425485976
-0.0338552915766805
-0.0317494600431979
-0.0317494600431979
-0.0317494600431979
-0.0306605471562367
-0.0249010079193825
-0.0270788336933149
-0.0238120950323984
-0.0195284377249934
-0.0158747300215989
-0.0197714182865258
-0.0141558675306089
-0.0119060475161992
-0.0105741540676844
-0.00481461483082852
-0.00396868250539974
-0.00396868250539974
-0.000557955363564178
-0.00161987041038469
0
0
0.00375269978401197
0.00793736501079947
0.00457163426926524
0.0103131749460009
0.0158747300215989
0.0119060475161992
0.0144978401727775
0.020257379409649
0.0216072714182983
0.0238390928725737
0.0277807775377982
0.0277807775377982
0.0292116630669424
0.0349712023038172
0.0446994240460634
0.0476241900647968
0.0562185025197846
0.0619780417566595
0.0717062634989056
0.0774658027357802
0.0832253419726277
0.0889848812095015
0.101673866090667
0.115091792656592
0.118169546436275
0.128797696184294
0.140316774658006
0.151835853131737
0.161051115910721
0.17090532757378
0.182424406047502
0.190235781137505
0.20149388048955
0.213012958963265
0.220563354931599
0.229148668106546
0.235664146868247
0.247183225341951
0.254364650827939
0.260124190064788
0.265883729301663
0.269870410367182
0.273434125269985
0.272453203743714
0.266693664506858
0.26093412526999
0.255174586033137
0.244222462203032
0.226943844492479
0.213408927285817
0.190370770338426
0.174946004319657
0.157829373650152
0.133711303095753
0.111366090712789
0.0910547156227552
0.0657577393808822
0.0515928725702014
0.0228761699064415
0.0113570914326918
-0.00404967602590027
-0.0116810655147507
-0.0341882649387214
-0.0451403887688948
-0.0476241900647968
-0.056659467242616
-0.0624190064794701
-0.0681785457163371
-0.0739380849531941
-0.0793736501079947
-0.0814884809215184
-0.0872480201583798
-0.0873110151187942
-0.0873110151187942
-0.0873110151187942
-0.0873110151187942
-0.0882649388048923
-0.0940244780417457
-0.091279697624194
-0.0936375089992675
-0.0950683945284461
-0.091279697624194
-0.091279697624194
-0.0952483801295937
-0.091873650108001
-0.091279697624194
-0.091279697624194
-0.0873110151187942
-0.0873110151187942
-0.0917026637869027
-0.0930345572354351
-0.091279697624194
-0.0894528437725133
-0.0873110151187942
-0.0873110151187942
-0.0873110151187942
-0.0843952483801193
-0.0873110151187942
-0.087976961843041
-0.088822894168472
-0.0873110151187942
-0.0852411807055505
-0.0833423326133945
-0.0856281497480284
-0.0833423326133945
-0.0820464362851066
-0.0793736501079947
-0.075404967602595
-0.075404967602595
-0.0838642908567264
-0.0849982001440036
-0.0833423326133945
-0.0833423326133945
-0.0796256299496187
-0.0809125269978349
-0.0833423326133945
-0.0821904247660297
-0.0793736501079947
-0.0793736501079947
-0.0768178545716531
-0.075404967602595
-0.075404967602595
-0.075404967602595
-0.075404967602595
-0.075404967602595
-0.0714362850971953
-0.0746220302375784
-0.075404967602595
-0.075404967602595
-0.075404967602595
-0.075404967602595
-0.0751709863210945
-0.0714362850971953
-0.0752519798416194
-0.075404967602595
-0.0719762419006491
-0.0766558675305881
-0.0763318934485265
-0.0771328293736258
-0.0806875449964044
-0.0798506119510319
-0.0810745140388822
-0.075314974802036
-0.0733171346292294
-0.0790766738660782
-0.075404967602595
-0.075404967602595
-0.0793736501079947
-0.0822714182865275
-0.0800935925125948
-0.0808315334773372
-0.075404967602595
-0.0775287976961773
-0.0793736501079947
-0.0811105111591016
-0.0833423326133945
-0.0793736501079947
-0.0825143988480827
-0.084305255579551
-0.0900647948164044
-0.0867350611951132
-0.0833423326133945
-0.0873110151187942
-0.0873110151187942
-0.0873110151187942
-0.0873110151187942
-0.083927285817143
-0.0857541396687904
-0.0852861771058478
-0.080192584593215
-0.0833423326133945
-0.0873110151187942
-0.0895338372930114
-0.091279697624194
-0.091279697624194
-0.091279697624194
-0.0898308135349327
-0.0905507559395306
-0.091279697624194
-0.091279697624194
-0.0866360691144889
-0.0808765298776145
-0.0793736501079947
-0.081452483801297
-0.0794726421886446
-0.0770968322534191
-0.0828563714902692
-0.0807325413967018
-0.075404967602595
-0.0812095032397311
-0.0873110151187942
-0.0873110151187942
-0.0826673866090962
-0.0793736501079947
-0.0813084953203684
-0.0796166306695602
-0.0785007199423922
-0.0833423326133945
-0.0793736501079947
-0.0764218862491164
-0.080147588192943
-0.0807775377969943
-0.0833423326133945
-0.0811645068394721
-0.0793736501079947
-0.0833423326133945
-0.0761789056875558
-0.078212742980528
-0.0801475881929529
-0.0793736501079947
-0.0821814254859582
-0.0833423326133945
-0.0833423326133945
-0.0833423326133945
-0.0813084953203869
-0.0793736501079947
-0.0810205183585245
-0.0833423326133945
-0.0833423326133945
-0.0802915766738678
-0.0723092152627687
-0.0780687544996436
-0.075404967602595
-0.0776817854571654
-0.075305975521977
-0.0714362850971953
-0.0751169906407364
-0.0739020878329801
-0.0714362850971953
-0.075404967602595
-0.0724982001440038
-0.0649568034557129
-0.0739560835133115
-0.0714362850971953
-0.0714362850971953
-0.0753599712022981
-0.0749280057595259
-0.0829103671706189
-0.0714362850971953
-0.0745860331173417
-0.0704643628509808
-0.0674676025917955
-0.0674676025917955
-0.0722192224621758
-0.0791756659467302
-0.075404967602595
-0.075404967602595
-0.075404967602595
-0.0720122390208857
-0.0714362850971953
-0.0714362850971953
-0.0666396688265172
-0.0634989200863958
-0.0630579553635952
-0.0595302375809961
-0.0634989200863958
-0.0616540676745983
-0.0631659467242432
-0.0674676025917955
-0.0642188624910011
-0.0634989200863958
-0.0634989200863958
-0.0714362850971953
-0.0689614830813563
-0.0674676025917955
-0.0674676025917955
-0.0635889128869872
-0.0669006479481609
-0.0749280057595281
-0.0714362850971953
-0.0714362850971953
-0.0674676025917955
-0.070185385169178
-0.0669276457883466
-0.0658297336213033
-0.0674676025917955
-0.0674676025917955
-0.0674676025917955
-0.0650557955363529
-0.0708153347732101
-0.0674676025917955
-0.0674676025917955
-0.0682505399568022
-0.0688624910007366
-0.0670716342692643
-0.0656857451403767
-0.071427285817139
-0.0674676025917955
-0.0710583153347734
-0.0700233981281702
-0.0642638588912958
-0.0655507559394895
-0.0714362850971953
-0.0674676025917955
-0.0674676025917955
-0.0674676025917955
-0.0633819294456635
-0.0595302375809961
-0.0555615550755963
-0.0590082793376348
-0.0622300215982857
-0.0595302375809961
-0.0586483081353637
-0.0555615550755963
-0.0555615550755963
-0.0555615550755963
-0.0555615550755963
-0.0536627069834452
-0.0552825773937966
-0.0540496760259234
-0.0515928725701966
-0.0555615550755963
-0.0526457883369471
-0.0515928725701966
-0.0515928725701966
-0.0515928725701966
-0.0494510439164974
-0.0476241900647968
-0.0498380129589732
-0.0476241900647968
-0.0476241900647968
-0.0444654427645914
-0.0436555075593971
-0.0381119510439435
-0.0357181425485976
-0.0357181425485976
-0.0396868250539974
-0.0376889848812261
-0.0319294456443517
-0.0245590352772128
-0.0164416846652304
-0.0131299496040142
-0.0219042476601791
-0.0302915766738099
-0.0449424046076212
-0.0515928725701966
-0.0560745140388649
-0.0554355651548346
-0.0476241900647968
-0.0476241900647968
-0.0421886249100189
-0.0396868250539974
-0.0407667386608974
-0.0407847372210423
-0.0403797696184197
-0.0411717062635001
-0.0360241180705422
-0.0417836573074166
-0.0436555075593971
-0.0431065514758804
-0.0546256299495795
-0.0529157667386599
-0.0555615550755963
-0.0494960403167672
-0.0610151187904781
-0.0629499640028884
-0.0595302375809961
-0.0595302375809961
-0.0614830813534865
-0.0672426205903471
-0.0674676025917955
-0.0674676025917955
-0.0634989200863958
-0.0605291576674004
-0.0523848092152617
-0.0581443484521135
-0.0515928725701966
-0.0515928725701966
-0.0515928725701966
-0.0534017278617578
-0.0555615550755963
-0.0541396688265132
-0.0515928725701966
-0.0495230381569859
-0.0436555075593971
-0.0396868250539974
-0.0396868250539974
-0.0433945284377477
-0.0417386609071219
-0.0436555075593971
-0.056587473002137
-0.0634989200863958
-0.035988120950388
-0.00756839452851098
0.0190334773217228
0.0758369330451551
0.158432325413683
0.313849892008668
0.523641108710885
0.698407127429817
0.850215982721059
0.918025557955415
0.75848632109487
0.412176025918144
0.159566234701601
-0.000791936644985235
-0.078401727861686
-0.0995770338372912
-0.111789056875422
-0.130885529157652
-0.126997840172792
-0.134107271418274
-0.11492980561557
-0.0976511879050025
-0.0654967602592071
-0.0392818574514396
-0.0214002879769729
-0.00554355651549236
0
0.00200683945282938
0.00776637868970466
0.00955723542115112
0.0119060475161992
0.0131389488840731
0.0158747300215989
0.0158747300215989
0.0211483081353406
0.0312904967602803
0.0277807775377982
0.0317494600431979
0.0317494600431979
0.0354031677465615
0.0357181425485976
0.0357181425485976
0.0396868250539974
0.0396868250539974
0.0443574514038779
0.0476241900647968
0.0479391648667995
0.0515928725701966
0.0515928725701966
0.0515928725701966
0.0480831533477468
0.0476241900647968
0.0476241900647968
0.048569114470841
0.0570644348451953
0.0595302375809961
0.0618790496760204
0.0597012239020838
0.0654607631389447
0.0637149028077858
0.0690424766018695
0.0714362850971953
0.0726241900647938
0.075404967602595
0.0833423326133945
0.0833423326133945
0.0833423326133945
0.0855471562274924
0.0873110151187942
0.0909467242620337
0.0952483801295937
0.0966792656587353
0.0992170626349934
0.107154427645793
0.109989200863931
0.119060475161992
0.121508279337653
0.131236501079899
0.132874370050408
0.134818214542822
0.142872570194391
0.146337293016546
0.156065514758816
0.158747300215989
0.167584593232538
0.176034917206598
0.18755399568033
0.201376889848776
0.210466162706979
0.218142548596122
0.229661627069818
0.239650827933775
0.248731101511867
0.260250179985607
0.271769258459315
0.282532397408215
0.290838732901362
0.30161987041038
0.30161987041038
0.313471922246215
0.31926745860332
0.328590712742978
0.338723902087843
0.344483441324699
0.345275377969777
0.348065154787621
0.353212742980577
0.35080993520521
0.345050395968337
0.335259179265714
0.325593952483815
0.314236861051159
0.302717782577408
0.287230021598316
0.269645428365753
0.250575953923764
0.224892008639338
0.200998920086458
0.181461483081381
0.158423326133996
0.137257019438469
0.116315694744501
0.0987311015119074
0.0814524838013514
0.0692404607631602
0.0606101511879241
0.0462023038157173
0.0371850251980007
0.027456803455737
0.0216972642188767
0.0120320374370324
0.0101781857451525
0.00793736501079947
0.00262778977682891
0
-0.00095392368609584
-0.00122390208785066
-0.00453563714902462
-0.00557955363571669
-0.004148668106546
-0.00596652267819167
-0.007730381569468
-0.0103221742260673
-0.00793736501079947
-0.00793736501079947
-0.00793736501079947
-0.00793736501079947
-0.0105381569474337
-0.0119060475161992
-0.0141198704103557
-0.0119060475161992
-0.0155597552195566
-0.0162257019438453
-0.0133459323253993
-0.0158747300215989
-0.0108531317494769
-0.0107811375089974
-0.0119060475161992
-0.0143628509719185
-0.0119060475161992
-0.0139758819294408
-0.0120140388769102
-0.0158747300215989
-0.0124010079193852
-0.00931425485962882
-0.00396868250539974
-0.00396868250539974
-0.00396868250539974
-0.0084593232541292
-0.0119060475161992
-0.015739740820747
-0.00998020158388625
-0.0116540676745726
-0.0119060475161992
-0.0119060475161992
-0.0119060475161992
-0.0119060475161992
-0.00793736501079947
-0.0104931605471485
-0.00793736501079947
-0.00793736501079947
-0.00793736501079947
-0.00793736501079947
-0.00793736501079947
-0.00654247660187537
-0.00715442764578021
-0.00692944564435124
-0.00396868250539974
-0.00458963282937299
-0.00793736501079947
-0.00793736501079947
-0.0038876889849067
0
-0.00233081353493108
0
0
-0.00304175665946558
-0.00793736501079947
-0.00793736501079947
-0.00349172066236517
0
-0.00405867530595657
-0.00981821454283097
-0.00823434125271915
-0.0089182865370917
0.00260079193661041
0
0
0
0
-0.000332973362119668
-0.0018448524118205
-0.00391468682504167
-0.00793736501079947
-0.00440964722823642
0
0
-0.00396868250539974
-0.00396868250539974
-0.00396868250539974
-0.00633549316052958
-0.0119060475161992
-0.0119060475161992
-0.0119060475161992
-0.0063444924406091
-0.000584953203751582
0
-0.00299676025917042
-0.00396868250539974
-0.00135889128870705
-0.000431965442764537
-0.00396868250539974
-0.00396868250539974
-0.00396868250539974
-0.00396868250539974
-0.00396868250539974
-0.00396868250539974
-0.00899928005758033
-0.0119060475161992
-0.0119060475161992
-0.00944024478042143
-0.00764938804897408
-0.00396868250539974
-0.00783837293014695
-0.00624550035997716
-0.00745140388767197
-0.00793736501079947
-0.00793736501079947
-0.00701943844493351
-0.00667746580272111
-0.0119060475161992
-0.00958423326135282
-0.00808135349170997
-0.0119060475161992
-0.0156317494600308
-0.0103581713463028
-0.00793736501079947
-0.0119060475161992
-0.00895428365732307
-0.00396868250539974
-0.00396868250539974
-0.000386969042473329
-0.00614650827933225
-0.00793736501079947
-0.0119060475161992
-0.0119060475161992
-0.0119060475161992
-0.00871130309576023
-0.0129229661627068
-0.0158747300215989
-0.0119060475161992
-0.0119060475161992
-0.0158747300215989
-0.0138408927285941
-0.0119060475161992
-0.0142278617710718
-0.00503059755219558
-0.0131659467242486
-0.0128239740820749
-0.00396868250539974
-0.00396868250539974
-0.00793736501079947
-0.00566054715623174
-0.0041666666666304
-0.0100161987041083
-0.00425665946726097
-0.010943124550024
-0.0125809935205346
-0.0130219582433329
-0.0129679625630104
-0.00720842332614269
-0.00396868250539974
-0.00431065514757791
-0.00793736501079947
-0.00793736501079947
-0.0101601871850365
-0.0114740820734219
-0.00657847372211177
-0.00711843052554356
-0.00793736501079947
-0.0107001439884664
-0.0119060475161992
-0.0119060475161992
-0.0119060475161992
-0.00991720662348948
-0.0117170626349847
-0.0142728581713661
-0.00851331893449256
-0.00793736501079947
-0.00493160547156967
-0.00396868250539974
-0.00396868250539974
-0.00749640028797562
-0.00173686105112717
-0.00396868250539974
-0.00396868250539974
-0.00396868250539974
-0.00396868250539974
-0.00396868250539974
-0.00396868250539974
-0.00683045356371376
-0.0112221022318376
-0.0054625629949623
-0.00396868250539974
-0.00396868250539974
-0.00396868250539974
0
0
-0.00396868250539974
-0.00396868250539974
-0.00886429085672394
-0.0119060475161992
-0.0119060475161992
-0.0119060475161992
-0.00793736501079947
-0.00793736501079947
-0.00793736501079947
-0.00793736501079947
-0.00458963282938797
-0.00793736501079947
-0.00497660187186483
-0.00475161987040286
-0.00793736501079947
-0.00396868250539974
-0.00615550755937891
-0.00794636429085263
-0.0137059035276998
-0.0122840172786228
-0.0119060475161992
-0.0119060475161992
-0.0119060475161992
-0.0119060475161992
-0.0158747300215989
-0.0158747300215989
-0.0119060475161992
-0.0139488840892626
-0.0158747300215989
-0.013561915046784
-0.0124280057595386
-0.0092062634989074
-0.0119060475161992
-0.0110241180705699
-0.0106101511879043
-0.00793736501079947
-0.0102231821454257
-0.0119060475161992
-0.0100071994240507
-0.00793736501079947
-0.00793736501079947
-0.00463462922967664
0
-0.00583153347729394
-0.00646148308136889
0
-0.00431965442763641
-0.00579553635710248
-3.59971202410615e-05
0
0.00354571634268094
0
0.00315874730020232
0.0128869690424704
0.0214182865370481
0.0238120950323984
0.0238120950323984
0.0236051115910781
0.013849892008694
0.00035997120231192
-0.00954823614108997
-0.0119060475161992
-0.0146508279337862
-0.00889128869691179
-0.00229481641472968
0.00659647228220943
0.00793736501079947
0.00569654427646752
0
0
0
0
0
-0.0050485961122976
-0.00506659467242695
-0.00327573794097961
0
-0.00396868250539974
-0.00396868250539974
-0.0117440604751279
-0.00793736501079947
-0.0114380849531886
-0.00793736501079947
-0.00482361411088535
-0.00396868250539974
-0.00396868250539974
-0.011357091432694
-0.00793736501079947
-0.0119060475161992
-0.00995320374371093
-0.00793736501079947
-0.00396868250539974
-0.00396868250539974
-0.0091162706983369
-0.0119060475161992
-0.00714542836573703
-0.00138588912888432
0.000404967602587458
0.00177285817136294
0
0
0
0
-0.00963822894166796
-0.0219132469402041
-0.0221292296616417
0.00453563714903998
0.0399748020157963
0.0782757379410044
0.143682505399455
0.224325053995737
0.37806875449928
0.584260259179399
0.745032397407926
0.883261339092932
0.941306695464629
0.75221382289421
0.404427645789088
0.169276457883416
0.0142368610513462
-0.0568574514038604
-0.09019978401722
-0.097363210943111
-0.117089632829334
-0.115091792656592
-0.109242260619182
-0.093007559395275
-0.0757289416847032
-0.0494330453564202
-0.0191774658027799
-8.09935205476764e-05
0.0136699064074797
0.0194294456443375
0.0212203023758033
0.0269798416126601
0.0277807775377982
0.0333423326133643
0.0363210943124522
0.0396868250539974
0.0438714902807759
0.0476241900647968
0.0514218862490991
0.0515928725701966
0.0550035997120211
0.0528257739380687
0.0555615550755963
0.0564074874009899
0.0595302375809961
0.0595302375809961
0.0617800575953865
0.0674676025917955
0.0637419006479718
0.0595302375809961
0.0659917206623605
0.0634989200863958
0.0645878329733522
0.0674676025917955
0.0634989200863958
0.0634989200863958
0.0638138948883967
0.0695734341252702
0.0753329733621178
0.0793736501079947
0.0793736501079947
0.0833423326133945
0.0833423326133945
0.0863660907127536
0.0833423326133945
0.0839002879769582
0.0873110151187942
0.091279697624194
0.091279697624194
0.095032397408202
0.0952483801295937
0.0952483801295937
0.0964362850971904
0.105174586033095
0.107955363570914
0.113714902807767
0.118646508279347
0.117296616270688
0.126997840172792
0.126997840172792
0.130606551475884
0.136366090712731
0.142125629949604
0.148929085673113
0.15477861771059
0.160061195104356
0.171580273578105
0.178860691144694
0.184620230381568
0.190379769618443
0.197813174945992
0.209332253419743
0.220851331893434
0.229292656587485
0.231983441324679
0.246193304535647
0.254508639308852
0.262571994240471
0.277933765298772
0.281776457883381
0.292899568034525
0.30558855291578
0.308909287257019
0.318637508999289
0.324397048236143
0.33015658747301
0.333369330453578
0.341306695464377
0.339146868250564
0.337338012958978
0.339533837293039
0.337338012958978
0.331983441324715
0.323047156227539
0.311528077753805
0.300008999280097
0.283909287257042
0.26663066954649
0.245608351331909
0.23005759539244
0.207019438444942
0.18235241180715
0.16039416846654
0.145842332613471
0.119771418286569
0.105444564434889
0.0912796976242133
0.0744690424766482
0.0606911447084486
0.0435745140389014
0.0359431245500567
0.0244240460763582
0.0143898488121063
0.00863030957525434
0.0108081353491843
0.00504859611233047
0.0032577393808626
0
-0.00364470842334122
-0.00211483081353406
-0.00787437005038071
-0.0101781857451429
-0.00441864650829349
-0.00793736501079947
-0.00793736501079947
-0.00793736501079947
-0.00519258459324434
-0.00453563714902198
-0.00793736501079947
-0.00396868250539974
-0.0059395248380049
-0.00793736501079947
-0.0134899208063294
-0.00575053995683528
-0.00516558675305404
-0.00494960403168932
-0.0087473002159788
-0.0119060475161992
-0.0154517638588946
-0.0119060475161992
-0.0119780417566561
-0.0198434125269987
-0.0126079913606972
-0.0133459323253967
-0.012643988480926
-0.0129589632829198
-0.0187185025197933
-0.014542836573115
-0.010394168466517
-0.011627069834435
-0.0100071994240384
-0.0119060475161992
-0.0175575953923601
-0.0198434125269987
-0.0185475161987153
-0.0158747300215989
-0.0149658027357941
-0.0119060475161992
-0.0124280057595263
-0.0181875449964007
-0.0197084233261493
-0.0158747300215989
-0.0158747300215989
-0.0143358531317527
-0.0119060475161992
-0.0158747300215989
-0.0129319654427767
-0.0158747300215989
-0.0184305255579454
-0.0190874730021743
-0.0140748740100715
-0.0198344132469323
-0.0158747300215989
-0.0194474442044554
-0.0198434125269987
-0.0198434125269987
-0.0188354931605522
-0.0214722822174009
-0.0231911447084278
-0.0198434125269987
-0.0196094312455022
-0.0178995680345427
-0.0198434125269987
-0.0238120950323984
-0.0203833693304578
-0.0250629949603867
-0.0277807775377982
-0.0269168466522885
-0.0238120950323984
-0.0277807775377982
-0.0277807775377982
-0.0277807775377982
-0.0277807775377982
-0.0241090712743207
-0.0238120950323984
-0.0238120950323984
-0.0277807775377982
-0.0306785457163256
-0.0317494600431979
-0.0292386609071446
-0.0274478041756811
-0.0238120950323984
-0.0238120950323984
-0.0272858171346263
-0.0282217422606335
-0.0251619870410355
-0.0277807775377982
-0.0297066234701151
-0.0357181425485976
-0.0351421886249178
-0.0317494600431979
-0.0317494600431979
-0.0317494600431979
-0.0317494600431979
-0.0277807775377982
-0.0243970482361527
-0.0210493160547114
-0.0298056155507357
-0.0317494600431979
-0.0343592512598879
-0.0321814254859607
-0.0379409647228099
-0.0356281497480238
-0.0277807775377982
-0.0277807775377982
-0.0238120950323984
-0.0238120950323984
-0.0238120950323984
-0.0266648668106513
-0.0310745140388974
-0.0277807775377982
-0.031461483081376
-0.0298596112310956
-0.0317494600431979
-0.0317494600431979
-0.0352321814254675
-0.0344132469402557
-0.0317494600431979
-0.0308315334773346
-0.0304895608351178
-0.0351871850252121
-0.0340712742980581
-0.0396868250539974
-0.0377519798416149
-0.0319924406047669
-0.0332973362131027
-0.0357181425485976
-0.0357181425485976
-0.0357181425485976
-0.0349442044636483
-0.0317494600431979
-0.0317494600431979
-0.0339272858171287
-0.0357181425485976
-0.0357181425485976
-0.0357181425485976
-0.0357181425485976
-0.0357181425485976
-0.0347012239020927
-0.0317494600431979
-0.0396868250539974
-0.0396868250539974
-0.0396868250539974
-0.0396868250539974
-0.0396868250539974
-0.0396868250539974
-0.0396868250539974
-0.0396868250539974
-0.0396868250539974
-0.0317494600431979
-0.0344132469402416
-0.0322354211662883
-0.0357181425485976
-0.0316504679625852
-0.0296706263498864
-0.0317494600431979
-0.0317494600431979
-0.0317494600431979
-0.02889668826493
-0.028842692584612
-0.0317494600431979
-0.0317494600431979
-0.0277807775377982
-0.0299136069114341
-0.0356731461482954
-0.0357181425485976
-0.0357181425485976
-0.0410457163426824
-0.0405057595392551
-0.0357181425485976
-0.0357181425485976
-0.0357181425485976
-0.0357181425485976
-0.035520158387337
-0.0337383009359199
-0.0357181425485976
-0.0301475881929517
-0.0345662347012079
-0.0384719222462262
-0.0357181425485976
-0.0365460763138938
-0.0396868250539974
-0.0352771778257764
-0.0339812814974687
-0.0356641468682514
-0.0317494600431979
-0.0281137508999302
-0.0317494600431979
-0.0317494600431979
-0.0346472282217609
-0.0317494600431979
-0.0357181425485976
-0.0381929445644304
-0.0357181425485976
-0.0336303095752417
-0.0317494600431979
-0.0317494600431979
-0.0317494600431979
-0.0317494600431979
-0.0348542116630509
-0.0357181425485976
-0.0357181425485976
-0.0396868250539974
-0.0396868250539974
-0.039533837293031
-0.0357181425485976
-0.0357181425485976
-0.0317494600431979
-0.0384449244060244
-0.0448254139668827
-0.0476241900647968
-0.0396868250539974
-0.0396868250539974
-0.0396868250539974
-0.0396868250539974
-0.0357181425485976
-0.0357181425485976
-0.0393088552915702
-0.0396868250539974
-0.0396868250539974
-0.0396868250539974
-0.0396868250539974
-0.0323884089272854
-0.0357181425485976
-0.0357181425485976
-0.0357181425485976
-0.0357181425485976
-0.0396868250539974
-0.0362401007919397
-0.036987041036702
-0.0396868250539974
-0.0357181425485976
-0.0330453563714954
-0.0357181425485976
-0.0357181425485976
-0.0356101511879256
-0.0317494600431979
-0.0317494600431979
-0.033261339092866
-0.039020878329717
-0.0345932325414081
-0.0346652267818431
-0.0317494600431979
-0.0292206623470286
-0.0313984881209639
-0.0277807775377982
-0.0277807775377982
-0.0238120950323984
-0.0273578113750767
-0.0277807775377982
-0.0277807775377982
-0.0277807775377982
-0.0250089992800753
-0.0277807775377982
-0.025395968322554
-0.0279877609791158
-0.0317494600431979
-0.0279607631389559
-0.0293916486681037
-0.0317494600431979
-0.0225881929445688
-0.0198434125269987
-0.0167116630669545
-0.0198434125269987
-0.0154247660187193
-0.0141468682505285
-0.0198434125269987
-0.0161357091432973
-0.00461663066954498
0
0
0
-0.00287077033837165
-0.0132919366450324
-0.0223272138228917
-0.0283927285816777
-0.0336213102951832
-0.0317494600431979
-0.0300395968322603
-0.0242800575954126
-0.0238120950323984
-0.0206983441324869
-0.0217152627789593
-0.0277807775377982
-0.0277807775377982
-0.0277807775377982
-0.0238120950323984
-0.0277177825773697
-0.0317494600431979
-0.0317494600431979
-0.0317494600431979
-0.0317494600431979
-0.0287796976242003
-0.0285727141828636
-0.0343322534197214
-0.0436555075593971
-0.0414596832253495
-0.0357001439884877
-0.0335583153347697
-0.0393178545716287
-0.0396868250539974
-0.0396868250539974
-0.0396868250539974
-0.0396868250539974
-0.0350701943844517
-0.0293106551476009
-0.02804175665947
-0.0317494600431979
-0.0317494600431979
-0.0300845932325564
-0.0277807775377982
-0.0317494600431979
-0.0286807055435586
-0.0268898488121121
-0.0264938804895591
-0.0317494600431979
-0.029454643628514
-0.0358351331893264
-0.0415946724262026
-0.0510529157667043
-0.0330093592513108
0.00399568034546754
0.0368520518357963
0.0917026637867168
0.16822354211647
0.289659827213479
0.478014758818885
0.679670626349516
0.824865010798906
0.932199424045976
0.881803455723864
0.568088552916434
0.259089272858897
0.0685205183587898
-0.0480561555073565
-0.101025917926549
-0.115910727141798
-0.139335853131743
-0.148848092152616
-0.15080993520519
-0.130075593952549
-0.116207703383748
-0.0878509719223819
-0.0532937365011356
-0.0260889128869702
-0.0145698344132693
-0.00396868250539974
-0.00171886249101192
0
0
0
0
0
0.00396868250539974
0.00396868250539974
0.00467062634987485
0.010430165586751
0.0122210223181975
0.0179805615550719
0.0198434125269987
0.0198434125269987
0.0198434125269987
0.0238120950323984
0.0238120950323984
0.028725701943837
0.0317494600431979
0.0323074154067599
0.0357181425485976
0.0357181425485976
0.0376799856011417
0.0396868250539974
0.0357181425485976
0.0390838732901253
0.0436555075593971
0.0436555075593971
0.0468232541396786
0.0436555075593971
0.0480381569474422
0.0537976961843026
0.0555345572354279
0.0534107271418268
0.0555615550755963
0.0569924406047507
0.0627519798416088
0.064542836573076
0.0674676025917955
0.0674676025917955
0.069915406767451
0.0717062634989255
0.075404967602595
0.075404967602595
0.077078833693295
0.0828383729301694
0.0846292296616159
0.090388768898492
0.0961483081353382
0.101907847372213
0.0997300215982593
0.107793376529874
0.115091792656592
0.117008639308856
0.122768178545704
0.120590352771777
0.129670626349864
0.140046796256297
0.145806335493153
0.155534557235419
0.163840892728562
0.17102231821454
0.178941684665209
0.19441144708421
0.200206983441323
0.213093952483772
0.223632109431246
0.229391648668102
0.236150107991357
0.244879409647224
0.255219582433404
0.264335853131744
0.278032757379416
0.281776457883381
0.289389848812099
0.299280057595386
0.30503959683226
0.30558855291578
0.308621310295182
0.314380849532028
0.317494600431979
0.313525917926579
0.309008279337687
0.301538876889859
0.293907487401041
0.278725701943854
0.26541576673871
0.248137149028086
0.23592512598996
0.218628509719237
0.196301295896381
0.176520878329747
0.153482721382363
0.132559395248397
0.115280777537857
0.0923056155507822
0.0727861771058818
0.0608171346292439
0.0461663066955113
0.0307955363571006
0.0195464362851354
0.00737041036718076
0.00161087113032135
0
-0.00394168466520503
-0.0116990640748625
-0.0103221742260708
-0.0113120950323838
-0.0158747300215989
-0.0188624910007065
-0.0198434125269987
-0.0224442044636276
-0.0238120950323984
-0.0215982721382481
-0.0198794096472254
-0.0238120950323984
-0.0274298056155483
-0.0238120950323984
-0.0238120950323984
-0.0248650107991371
-0.0277807775377982
-0.0231461483081356
-0.0223002159827144
-0.0235331173506115
-0.0177735781137615
-0.0197354211663107
-0.0238120950323984
-0.0203383729301652
-0.0158747300215989
-0.0220482361411081
-0.0238120950323984
-0.0238120950323984
-0.0238120950323984
-0.0238120950323984
-0.0198434125269987
-0.0217692584593192
-0.0163786897048574
-0.0134449244060428
-0.0158747300215989
-0.0158747300215989
-0.0158747300215989
-0.0190784737221105
-0.0158747300215989
-0.0198434125269987
-0.0198434125269987
-0.0198434125269987
-0.0198434125269987
-0.0162706983441449
-0.0172696184305178
-0.0198434125269987
-0.0168826493880437
-0.0226421886248953
-0.0238120950323984
-0.0262239020878181
-0.0275467962563052
-0.0238120950323984
-0.0199964002879809
-0.0142368610511365
-0.0119060475161992
-0.0158747300215989
-0.0158747300215989
-0.0158747300215989
-0.0158747300215989
-0.0198434125269987
-0.0221112311015035
-0.0277807775377982
-0.0258999280057702
-0.0274838012958732
-0.0277807775377982
-0.0277807775377982
-0.0277807775377982
-0.0277807775377982
-0.0238120950323984
-0.0238120950323984
-0.0241450683945137
-0.0277807775377982
-0.0277807775377982
-0.0277807775377982
-0.0313084953203591
-0.0317494600431979
-0.0348902087832847
-0.0396868250539974
-0.0369330453563847
-0.0357181425485976
-0.0357181425485976
-0.0317494600431979
-0.0337293016558588
-0.0357181425485976
-0.0357181425485976
-0.0391018718502423
-0.0357181425485976
-0.0327213822894316
-0.0357181425485976
-0.0331083513319102
-0.0321814254859589
-0.0379409647228082
-0.0396868250539974
-0.0396868250539974
-0.0360601151907908
-0.0357181425485976
-0.0324784017278679
-0.0357181425485976
-0.038570914326847
-0.0390118790496761
-0.0381839452843701
-0.0357181425485976
-0.0357181425485976
-0.0318484521238273
-0.0357181425485976
-0.0357181425485976
-0.038381929445659
-0.0326223902087828
-0.0406047516198589
-0.0409467242620609
-0.0362491000719823
-0.042008639308855
-0.0396868250539974
-0.0377519798416166
-0.0319924406047687
-0.0332973362131
-0.0357181425485976
-0.0368790496760211
-0.0396868250539974
-0.0357181425485976
-0.0382829373650007
-0.0392998560115293
-0.0357181425485976
-0.0396868250539868
-0.0357181425485976
-0.0392998560115099
-0.0396868250539974
-0.0396868250539974
-0.0396868250539974
-0.0396868250539974
-0.0396868250539974
-0.0396868250539974
-0.0396868250539974
-0.0396868250539974
-0.0396868250539974
-0.0436555075593971
-0.0436555075593971
-0.042395608351353
-0.0366360691144786
-0.0445284377249644
-0.0449604031677549
-0.0396868250539974
-0.0396868250539974
-0.0396868250539974
-0.0396868250539974
-0.0360061195104624
-0.0381839452843895
-0.0357181425485976
-0.0357181425485976
-0.0357181425485976
-0.0357181425485976
-0.0331983441324706
-0.0360601151907714
-0.037553995680349
-0.0357181425485976
-0.0379409647228276
-0.0357181425485976
-0.0396868250539974
-0.0396868250539974
-0.0426835853131828
-0.0369240460763262
-0.0357181425485976
-0.0357181425485976
-0.0396868250539974
-0.0396868250539974
-0.0359071274298156
-0.0373200143988429
-0.0396868250539974
-0.0357181425485976
-0.0387239020878221
-0.0388588912887038
-0.0383369330453453
-0.0392458603311779
-0.0379499640028649
-0.0396868250539974
-0.0396868250539974
-0.0360511159107323
-0.034665226781825
-0.0396868250539974
-0.0386159107271624
-0.032856371490288
-0.0277807775377982
-0.0253059755219672
-0.0238120950323984
-0.0258999280057526
-0.0277807775377982
-0.0277807775377982
-0.0277807775377982
-0.0277807775377982
-0.0246760259179248
-0.0317494600431979
-0.0317494600431979
-0.0322894168466393
-0.0357181425485976
-0.0357181425485976
-0.0357181425485976
-0.0357181425485976
-0.0357181425485976
-0.0323704103671861
-0.0329193664506799
-0.032757379409662
-0.0325323974082031
-0.0382919366450592
-0.0321454283657262
-0.0379049676025851
-0.0357091432685497
-0.0317494600431979
-0.0353401727861687
-0.0317494600431979
-0.0317494600431979
-0.0317494600431979
-0.0317494600431979
-0.0317494600431979
-0.0341792656587346
-0.0357181425485976
-0.0357181425485976
-0.0357181425485976
-0.0357181425485976
-0.0357181425485976
-0.0357181425485976
-0.0326583873290203
-0.0366000719942234
-0.0396868250539974
-0.0396868250539974
-0.0419726421886192
-0.0436555075593971
-0.0417566594672539
-0.035997120230404
-0.0411987041036637
-0.0403527717782778
-0.0436555075593971
-0.0407397408207554
-0.0404247660187065
-0.0487131029517323
-0.0472732181425646
-0.0457973362130906
-0.0436915046796435
-0.0436555075593971
-0.0436555075593971
-0.0396868250539974
-0.0396868250539974
-0.0396868250539974
-0.0424586033117252
-0.0384989200864089
-0.0317494600431979
-0.0317494600431979
-0.0317494600431979
-0.0317494600431979
-0.0293916486681001
-0.0351511879049578
-0.0344942404607698
-0.0317494600431979
-0.0357181425485976
-0.0330903527717915
-0.0317494600431979
-0.0339902807775237
-0.0356551475881956
-0.029895608351349
-0.0314254859611218
-0.03321634269257
-0.0357181425485976
-0.0357181425485976
-0.0385889128869658
-0.0350251979841828
-0.0317494600431979
-0.0317494600431979
-0.0296526277897852
-0.0316684665226561
-0.0340082793376636
-0.0282487401008141
-0.0277807775377982
-0.03089452843773
-0.0277807775377982
-0.0305075593952496
-0.0357181425485976
-0.0357181425485976
-0.0398488120950205
-0.0436555075593971
-0.0436555075593971
-0.0436555075593971
-0.0436555075593971
-0.0396868250539974
-0.0367170626350015
-0.0365100791936613
-0.0371040316774774
-0.0277807775377982
-0.0299766018718423
-0.0356821454283848
-0.0241630669546582
-0.0126439884809401
-0.00651547876170534
-0.00396868250539974
-0.005003599712018
-0.0164146868250157
-0.0284287257019423
-0.0341882649387931
-0.0396868250539974
-0.0396868250539974
-0.0358441324694061
-0.0277807775377982
-0.0312365010799126
-0.0317494600431979
-0.0348182145428337
-0.0379049676026288
-0.0344312455003551
-0.0357181425485976
-0.0357181425485976
-0.0357181425485976
-0.0338102951763942
-0.0317494600431979
-0.0372390208783225
-0.0396868250539974
-0.0396868250539974
-0.0396868250539974
-0.036465082793367
-0.0447624190064494
-0.0519528437724874
-0.0555615550755963
-0.0555615550755963
-0.0515928725701966
-0.0515928725701966
-0.0476241900647968
-0.0476241900647968
-0.0466342692584655
-0.0408747300216109
-0.0436555075593971
-0.0436555075593971
-0.0436555075593971
-0.0416486681065608
-0.0434845212382944
-0.0436555075593971
-0.0436555075593971
-0.0372210223182248
-0.0347732181425394
-0.0428095752339849
-0.034413246940268
-0.032667386609067
-0.044186465082766
-0.0517368610511175
-0.0595302375809961
-0.0412616990640768
0.00193484521232259
0.0315064794816201
0.080534557235198
0.161168106551418
0.28836393088493
0.490118790496615
0.694771418286063
0.838201943844344
0.955084593232186
0.867854571634636
0.556749460044486
0.264245860331499
0.0636339092878399
-0.0580183585311852
-0.0994870410366708
-0.105975521958185
-0.134773218142557
-0.138903887688991
-0.136942044636435
-0.123677105831578
-0.107217422606204
-0.0750539956804234
-0.0416846652268017
-0.015865730741581
0
0
0.00793736501079947
0.00793736501079947
0.00793736501079947
0.00793736501079947
0.00793736501079947
0.0119060475161992
0.00868430525559001
0.0139938804895526
0.0170086393088681
0.0171886249100042
0.0238120950323984
0.0198434125269987
0.0219042476601738
0.0199604031677486
0.0215172786176969
0.0272768178545713
0.0290676745860178
0.034827213822894
0.0317494600431979
0.0317494600431979
0.0362311015118618
0.0396868250539974
0.0435295176386116
0.0396868250539974
0.047102231821418
0.0436555075593971
0.0469762419006315
0.0476241900647968
0.0476241900647968
0.0483801295896247
0.054139668826481
0.0551925845932488
0.0537526997840052
0.0555615550755963
0.055138588912862
0.0630939524837896
0.0609161267098547
0.0634989200863958
0.0644978401727785
0.0702573794096318
0.0674676025917955
0.069870410367155
0.075404967602595
0.075404967602595
0.083018358531306
0.0889398848092131
0.091279697624194
0.0952483801295937
0.0982811375089937
0.100071994240464
0.105831533477315
0.115559755219585
0.121319294456437
0.12707883369331
0.130966522678191
0.134629229661634
0.140388768898478
0.152699784017276
0.159845212383
0.168493520518359
0.180012598992052
0.189029877609796
0.191144708423294
0.202663786897043
0.210277177825763
0.220005399568037
0.229283657307387
0.240802735781133
0.24919006479481
0.255903527717771
0.267422606191484
0.274406047516199
0.282523398128131
0.293862491000721
0.299622030237581
0.30538156947444
0.307172426205916
0.312931965442766
0.314722822174239
0.320482361411092
0.317494600431979
0.317494600431979
0.313102951763877
0.307343412527019
0.29757919366453
0.28423326133912
0.270572354211689
0.255084593232564
0.24033477321818
0.22305615550758
0.208621310295204
0.187832973362143
0.16479481641474
0.145725341972643
0.122687185025257
0.103509719222468
0.0788966882650104
0.0535727141828698
0.0476241900647968
0.0383639308855331
0.0250539956803996
0.0131749460043248
0.00344672426207706
-0.00231281497479733
-0.00410367170624379
-0.00793736501079947
-0.00793736501079947
-0.00947624190063958
-0.0119060475161992
-0.00908927285816272
-0.0119060475161992
-0.013435925125972
-0.0223992080633398
-0.0238120950323984
-0.0259809215262654
-0.0277807775377982
-0.0255939524837913
-0.0277807775377982
-0.0238120950323984
-0.0238120950323984
-0.0238120950323984
-0.0238120950323984
-0.0238120950323984
-0.0262239020878164
-0.0277807775377982
-0.0277807775377982
-0.0315964722822122
-0.0277807775377982
-0.0277807775377982
-0.0277807775377982
-0.0277807775377982
-0.0308855291576706
-0.0251259899208182
-0.0273038156947467
-0.0238120950323984
-0.0277807775377982
-0.0258999280057737
-0.0238120950323984
-0.0198434125269987
-0.0231281497480192
-0.0227051835853295
-0.0198434125269987
-0.0212832973361829
-0.0252699784017314
-0.0244780417566219
-0.0296256299496115
-0.0238660907127632
-0.0198434125269987
-0.0198434125269987
-0.0238120950323984
-0.0238120950323984
-0.0228491720662461
-0.0198434125269987
-0.0198434125269987
-0.0198434125269987
-0.0196544276458001
-0.0178545716342564
-0.0236141108711184
-0.0238120950323984
-0.0238120950323984
-0.0198434125269987
-0.0198434125269987
-0.0198434125269987
-0.0172336213103034
-0.0238120950323984
-0.0238120950323984
-0.0238120950323984
-0.0238120950323984
-0.0238120950323984
-0.0252609791216679
-0.0277807775377982
-0.0277807775377982
-0.0277807775377982
-0.0277807775377982
-0.0302465802735707
-0.0274928005759545
-0.0258909287256905
-0.0355201583873317
-0.0340262778977824
-0.028266738660908
-0.0290856731461366
-0.0317494600431979
-0.0277807775377982
-0.0304895608351309
-0.0317494600431979
-0.0317494600431979
-0.0316054715622936
-0.0277807775377982
-0.0315064794816236
-0.0302015838732975
-0.0244420446364469
-0.0266198704103764
-0.0238120950323984
-0.0198434125269987
-0.0198434125269987
-0.0194564434845324
-0.0180525557955244
-0.0238120950323861
-0.02163426925845
-0.027393808495309
-0.0263768898488244
-0.0270068394528304
-0.0267638588912985
-0.0266198704103517
-0.0317494600431979
-0.0293286537077214
-0.0277807775377982
-0.029814614830796
-0.0279247660187254
-0.0277807775377982
-0.0312185025197938
-0.0317494600431979
-0.0286987041036826
-0.0277807775377982
-0.0304445644348366
-0.0317494600431979
-0.0317494600431979
-0.0317494600431979
-0.0317494600431979
-0.0317494600431979
-0.0332523398128022
-0.0324244060475169
-0.0317494600431979
-0.0317494600431979
-0.0357181425485976
-0.0306785457163506
-0.0281227501799684
-0.0317494600431979
-0.0278257739381045
-0.0255579553635665
-0.0277807775377982
-0.0277807775377982
-0.0277807775377982
-0.0277807775377982
-0.0250179985601306
-0.0238120950323984
-0.0261879049675919
-0.0240100791936538
-0.0277807775377982
-0.0277807775377982
-0.0277807775377982
-0.0277807775377982
-0.0265658747300305
-0.0238120950323984
-0.0269528437725081
-0.0264308855291426
-0.0238120950323984
-0.0260439164866657
-0.0277807775377982
-0.0277807775377982
-0.0277807775377982
-0.0238120950323984
-0.0270608351331831
-0.0277807775377982
-0.0277807775377982
-0.0317494600431979
-0.0292746580273704
-0.0277807775377982
-0.0277807775377982
-0.0316594672426252
-0.0300485961123241
-0.0277807775377982
-0.0357181425485976
-0.0326133909287278
-0.0277807775377982
-0.0304985601151911
-0.0277807775377982
-0.0324424046076268
-0.0315964722822368
-0.0297246220302339
-0.0317494600431979
-0.0317494600431979
-0.0317494600431979
-0.0289506839452784
-0.0376709863210692
-0.0389038876889957
-0.0357181425485976
-0.0357181425485976
-0.0335313174946137
-0.0396868250539974
-0.0360871130309778
-0.0317494600431979
-0.0317494600431979
-0.0285457163427075
-0.0277807775377982
-0.0277807775377982
-0.0277807775377982
-0.0277807775377982
-0.0277807775377982
-0.0277807775377982
-0.0239470842332672
-0.0254679625629779
-0.024334053275744
-0.0225431965442993
-0.0198434125269987
-0.0238120950323984
-0.0211393088553015
-0.0158747300215989
-0.018160547156219
-0.0158747300215989
-0.0158747300215989
-0.0158747300215989
-0.0158747300215989
-0.0125719942404597
-0.0158747300215989
-0.0129589632829383
-0.020581353491706
-0.0187544996400344
-0.0162257019438277
-0.0198434125269987
-0.0159107271418468
-0.0158747300215989
-0.0158747300215989
-0.0119060475161992
-0.0119060475161992
-0.00793736501079947
-0.0107091432685255
-0.011312095032405
-0.00793736501079947
-0.00793736501079947
-0.00993520518357378
-0.0119060475161992
-0.0119060475161992
-0.0119060475161992
-0.00793736501079947
-0.010952123830079
-0.0127429805615494
-0.0132469402447963
-0.0154247660187246
-0.0119060475161992
-0.0119060475161992
-0.0100521958243538
-0.00793736501079947
-0.0133729301655678
-0.0126169906407557
-0.0119060475161992
-0.0147768178545656
-0.0112131029517646
-0.00793736501079947
-0.00824334053275996
-0.0119060475161992
-0.0119060475161992
-0.0119060475161992
-0.0119060475161992
-0.0119060475161992
-0.0087922966162709
-0.0109701223902242
-0.00521058315334801
-0.00396868250539974
-0.00630849532037434
-0.00793736501079947
-0.00598452123830525
-0.00396868250539974
-0.0063714902807821
-0.00396868250539974
-0.00514758819294026
-0.00793736501079947
-0.00396868250539974
-0.00396868250539974
0
0
-0.00395068394529331
-0.00180885529156648
-0.00396868250539974
-0.00396868250539974
-0.00718142548594867
-0.00293376529878323
0
0
0
0
0
0.00768538516917902
0.0158747300215989
0.0193304535637116
0.0225341972642408
0.0137059035277306
0.00615550755943795
0
-0.000503959683203906
-0.00396868250539974
-0.00385169186467621
0.00190784737219995
0.000269978401751408
0.00152087832972133
0.000656947444225513
0
0
0
0
0.000359971202289008
0.00181785457163607
0
-0.00396868250539974
-0.00396868250539974
-0.00396868250539974
-0.00713642908566009
-0.00793736501079947
-0.00793736501079947
-0.0158747300215989
-0.0134809215262903
-0.0119060475161992
-0.0119060475161992
-0.0119060475161992
-0.0119060475161992
-0.0153167746580176
-0.0119060475161992
-0.0119060475161992
-0.00793736501079947
-0.00530057595393833
-0.00793736501079947
-0.00793736501079947
-0.00396868250539974
-0.00396868250539974
-0.000314974802019405
0
0
0
0
0
-0.00249280057594624
-0.0125359971202371
-0.0219492440604681
-0.0121220302375663
0.0222192224621333
0.053266738660916
0.0993250539955404
0.174685025198007
0.280453563714572
0.474550035997174
0.6868880489557
0.844519438444888
0.977321814254804
0.94713822894181
0.675296976242797
0.356929445644509
0.142926565875205
0.000431965442834578
-0.0535907127429022
-0.0651007919366331
-0.0869870410366552
-0.0988030957523516
-0.0930435565154929
-0.0832883369330681
-0.0735871130309701
-0.0497840172786895
-0.0152267818574936
0.00966522678182231
0.0248560115190734
0.030615550755927
0.0357181425485976
0.0357181425485976
0.0359881209503226
0.0396868250539974
0.0435385169186471
0.0436555075593971
0.0471202303815665
0.0528797696184127
0.0555615550755963
0.0533927285816751
0.0595302375809961
0.0565874730021211
0.0634989200863958
0.0634989200863958
0.0654157667386542
0.0637598992080888
0.0674676025917955
0.0674676025917955
0.0686105111590967
0.0714362850971953
0.0714362850971953
0.0739830813534762
0.0757739380849425
0.0793736501079947
0.0833243340532617
0.085115190784738
0.0873110151187942
0.0873110151187942
0.0873110151187942
0.091279697624194
0.091279697624194
0.0952483801295937
0.0928455723542266
0.0954733621310246
0.101232901367886
0.103185745140393
0.104814614830812
0.110574154067668
0.107154427645793
0.110187185025189
0.115946724262059
0.119060475161992
0.123029157667392
0.125287976961833
0.126997840172792
0.126997840172792
0.13066054715623
0.136420086393077
0.138903887688991
0.14684125269979
0.14684125269979
0.14826313894885
0.157280417566594
0.163039956803441
0.168799496040317
0.178464722822138
0.182559395248388
0.189596832253436
0.199775017998558
0.205534557235432
0.216216702663773
0.224991000719954
0.231317494600412
0.242836573074164
0.246418286537057
0.257937365010806
0.265694744420444
0.274622030237585
0.285151187904965
0.292107631389492
0.300638948884089
0.303239740820734
0.312158027357815
0.31834053275738
0.329859611231093
0.337374010079199
0.343133549316061
0.345275377969777
0.350683945284386
0.356443484521243
0.353212742980577
0.356056515478764
0.352546796256319
0.349244060475177
0.340748740100811
0.329229661627114
0.317710583153362
0.29657127429812
0.279292656587497
0.262014038876953
0.24473542116633
0.223488120950392
0.203509719222489
0.180471562275111
0.159746220302408
0.138498920086464
0.123146148308158
0.107910367170696
0.0906317494600734
0.0766828653708158
0.0651637868970761
0.0595302375809961
0.0540316774658306
0.0425125989921181
0.0349622030237856
0.0277807775377982
0.0238210943124728
0.0198434125269987
0.0162706983441502
0.0158747300215989
0.0190604751619762
0.0198434125269987
0.0170446364290991
0.015253779697631
0.00949424046077372
0.0119060475161992
0.00988120950324782
0.00793736501079947
0.0119060475161992
0.0119060475161992
0.00793736501079947
0.0109791216702562
0.0127699784017248
0.0132199424046208
0.0123830093592489
0.0158747300215989
0.0198434125269987
0.0198434125269987
0.0198434125269987
0.0223182145428544
0.0198434125269987
0.0169816414686644
0.0169456443484586
0.0173146148307761
0.0238120950323984
0.0238120950323984
0.0238120950323984
0.0198974082073669
0.0158747300215989
0.0158747300215989
0.0172246220302281
0.0167026637869154
0.0128689704823515
0.0158747300215989
0.0198434125269987
0.0174766018718503
0.0119060475161992
0.0119060475161992
0.0119060475161992
0.0119060475161992
0.0119060475161992
0.0131119510439135
0.0158747300215989
0.0158747300215989
0.0158747300215989
0.0158747300215989
0.0180975521958166
0.0197984161267185
0.0158747300215989
0.019501439884802
0.018394528437731
0.0158747300215989
0.0148128149748071
0.014758819294445
0.0112311015118833
0.0104031677465684
0.0116180705543574
0.00793736501079947
0.00406767458603446
0.00169186465081174
0.00396868250539974
0.00396868250539974
0.00396868250539974
0.00396868250539974
0.00125989920806881
0
0.00232181425485231
0.00793736501079947
0.00793736501079947
0.00793736501079947
0.00793736501079947
0.00793736501079947
0.00396868250539974
0.00692044636427341
0.00396868250539974
0.00653347732179931
0.00755039596833496
0.00396868250539974
0.00396868250539974
0.00396868250539974
0.00396868250539974
0.00396868250539974
0.00077393808496957
0
0
0
0
0.000242980561549619
0.00193484521238991
0
0
0
0
0
0
0.00266378689703841
0.00793736501079947
0.00566054715624144
0
0.00188984881208118
0.000287976961843896
0.00396868250539974
0.00726241900647696
0.00793736501079947
0.00793736501079947
0.00396868250539974
0.00648848092152149
0.00759539236862923
0.0018358531317566
0.00392368610508992
0.00222282217423345
0
0
0
0.00299676025919069
0.00276277897766408
0
0.00237580993518997
0.0077393808495459
0.00197984161266974
0
0
0
0
0
0
-0.00261879049675197
-0.00396868250539974
-0.00173686105112364
-5.39956803386807e-05
-0.00396868250539974
-0.000332973362138173
0
0
0
0
0
0.00247480201582748
0.00367170626349945
0
0
0
0
0
0
-0.00304175665948673
0
0
-0.00233081353491258
-0.00381569474444044
-0.00194384449243396
-0.00396868250539974
-0.00396868250539974
-0.00396868250539974
0
-0.00296076313893211
-0.0071544276457996
-0.00396868250539974
-0.00754139668827822
-0.00178185745141936
-0.00396868250539974
-0.00396868250539974
-0.00396868250539974
-0.00396868250539974
-0.00396868250539974
-0.00691144708424493
-0.00396868250539974
-0.00729841612671904
-0.00639848812093117
-0.0116540676745929
-0.00793736501079947
-0.00793736501079947
-0.00793736501079947
-0.00793736501079947
-0.00793736501079947
-0.00793736501079947
-0.00793736501079947
-0.00793736501079947
-0.00843232541396603
-0.00962023038158267
-0.000107991360692456
-0.00396868250539974
-0.00396868250539974
-0.00944924406045878
-0.00860331173506348
-0.00793736501079947
-0.0108531317494583
-0.0111681065514936
-0.00793736501079947
-0.00758639308857249
-0.00396868250539974
-3.59971202513807e-05
-0.00175485961122302
-0.000422966162723723
-0.00136789056874793
-0.00396868250539974
-0.00396868250539974
-0.00396868250539974
0
0
0
0
-0.00378869690423448
0
0
0
0
-0.00396868250539974
-0.00396868250539974
-0.00793736501079947
-0.00793736501079947
-0.00390568754500255
-0.00185385169185867
-0.000323974082081433
0
0
0
0
-0.00327573794096514
0
-0.00396868250539974
-0.00396868250539974
-0.00396868250539974
-0.00396868250539974
-0.00396868250539974
0
-0.00311375089992831
-0.000935925125971513
-0.00396868250539974
-0.00793736501079947
-0.00559755219582839
-0.00396868250539974
-0.00396868250539974
-0.00771238300934026
-0.00396868250539974
-0.00732541396686439
-0.00675845932326424
-0.000998920086407423
0
0
0
0
0.0119060475161992
0.0119060475161992
0.0155057595392232
0.0212652987760875
0.0270248380129438
0.0257109431245722
0.0170176385889319
0.0152267818574583
0.00946724262060751
0.00370770338373497
0
-0.00384269258458775
0.00332973362126894
0.0113930885529086
0.0119060475161992
0.0119060475161992
0.0119060475161992
0.00922426205904732
0.00346472282220112
0.0022948164146768
0.00782037437004858
0.00206083513320155
0
0
0
0
-0.00292476601871561
-0.00396868250539974
-0.00650647948163673
-0.0082973362130832
-0.0140568754499611
-0.0158747300215989
-0.0101421886249159
-0.00793736501079947
-0.00793736501079947
-0.00476961843054265
-0.00297876169907368
0
0
0
0.00375269978402739
0
0
0
0
0
0
0
-0.00263678905686708
0
0
-0.00808135349171437
-0.0158747300215989
-0.00491360691147381
0.0286987041036567
0.0567224622029969
0.0992890568754327
0.177042836572933
0.299568034557211
0.498056155507277
0.69905507559397
0.85035097192195
0.974856011519186
0.895635349172576
0.581020518358472
0.284089272858693
0.095968322534221
-0.0134179265657175
-0.0573344132469293
-0.069141468682455
-0.088768898488106
-0.0954193664506718
-0.0992170626349934
-0.0879589632830018
-0.0706803455723727
-0.0433045356372466
-0.0162796976242122
0.00397768178539649
0.0206443484521156
0.0264038876889715
0.0321634269258362
0.0357181425485976
0.0357451403887608
0.0396868250539974
0.0432955363570817
0.0436555075593971
0.0436555075593971
0.04866810655147
0.0515928725701966
0.0482811375089942
0.054040676745845
0.0515928725701966
0.0515928725701966
0.0515928725701966
0.0595302375809961
0.0595302375809961
0.0634989200863958
0.0634989200863958
0.0674676025917955
0.0674676025917955
0.0674676025917955
0.0674676025917955
0.0714362850971953
0.0695194384449404
0.0674676025917955
0.0714362850971953
0.0714362850971953
0.075404967602595
0.075404967602595
0.0761609071274176
0.081920446364292
0.0829733621310505
0.0815334773218134
0.0833423326133945
0.0873110151187942
0.0908747300215871
0.0952483801295937
0.0984251259899072
0.0992170626349934
0.102006839452835
0.103797696184301
0.111960043196523
0.118835493160563
0.115091792656592
0.122705183585293
0.123029157667392
0.123029157667392
0.128239740820733
0.133999280057584
0.138903887688991
0.141549676025909
0.143340532757383
0.149100071994242
0.150890928725704
0.160394168466516
0.170347372210224
0.169654427645788
0.181173506119502
0.187625989920815
0.193385529157669
0.203113750899938
0.213876889848795
0.230183585313185
0.234413246940233
0.245932325413982
0.255723542116629
0.265001799856031
0.276520878329716
0.284908207343423
0.290667746580269
0.296427285817147
0.302753779697607
0.311915046796268
0.317674586033114
0.323434125269988
0.332955363570893
0.338921886249109
0.344681425485959
0.349244060475177
0.346256299496071
0.350053995680351
0.350611951043943
0.340883729301679
0.33512419006482
0.321391288696939
0.311699064074898
0.298704103671756
0.283954283657358
0.264146868250595
0.246868250539994
0.226745860331235
0.207676385889156
0.184638228941766
0.161879049676044
0.1446004319655
0.123461123110172
0.10775737940969
0.0962383009359409
0.0834233261339757
0.0661447084233524
0.0577123830094076
0.0488930885529277
0.0426115910727588
0.0357181425485976
0.0316144708423609
0.0277807775377982
0.0240640748740347
0.025350971922235
0.0277807775377982
0.0226601871850405
0.0169006479481834
0.0151097912167196
0.0119060475161992
0.00755939524839522
0.00396868250539974
0.00792836573072517
0.00575053995680003
0.00793736501079947
0.00675845932324309
0.00872030237582551
0.00793736501079947
0.00793736501079947
0.0073164146868315
0.00155687544997777
0
0.00202483801294963
0.00396868250539974
0.00233081353492598
0
0.00793736501079947
0.00793736501079947
0.00793736501079947
0.00793736501079947
0.0123830093592454
0.0158747300215989
0.0158747300215989
0.0158747300215989
0.0158747300215989
0.0198434125269987
0.0165586753059817
0.0130129589632832
0.0129769618430606
0.0133459323254155
0.017332613390939
0.0158747300215989
0.0158747300215989
0.0158747300215989
0.0158747300215989
0.0194024478041761
0.0105561555075718
0.00793736501079947
0.00793736501079947
0.00793736501079947
0.0164506839452691
0.015109791216709
0.0120950323973908
0.0178545716342652
0.0160727141828811
0.0142818574514078
0.0152897768178409
0.0119060475161992
0.0119060475161992
0.0119060475161992
0.00929625629950921
0.0075053995680442
0.00619150467961387
0.00793736501079947
0.00977321814253774
0.00827933765300144
0.00541756659466566
0.00793736501079947
0.00793736501079947
0.00793736501079947
0.00793736501079947
0.00793736501079947
0.00764938804896115
0.00188984881211291
0.00386969042476502
0.0119060475161992
0.0119060475161992
0.0119060475161992
0.0119060475161992
0.0109881209503447
0.00793736501079947
0.0113750899928233
0.00561555075594892
0.00396868250539974
0.0020338372930278
0
0.00396868250539974
0.00730741540674752
0.0090982721382177
0.0119060475161992
0.0119060475161992
0.00677645788340712
0.000386969042460992
0.00396868250539974
0.00396868250539974
0.00179085673145704
0.00396868250539974
0.00396868250539974
0.00396868250539974
0.00396868250539974
0.00396868250539974
0
0
0
-0.0020338372930063
-0.00779337652986695
-0.00629049676026551
-0.00740640748739186
-0.00270878329734517
0
0.00484161267098196
0.00527357811376458
0.000485961123106359
0.00396868250539974
9.89920806304922e-05
0.00585853131747739
0.00793736501079947
0.00793736501079947
0.00793736501079947
0.00396868250539974
0.00396868250539974
0.00396868250539974
0.00396868250539974
0.000341972642192484
0.00610151187904111
0.00793736501079947
0.00793736501079947
0.0114740820734369
0.00657847372211533
0.00711843052555854
0.00793736501079947
0.00793736501079947
0.00793736501079947
0.00793736501079947
0.00773938084954766
0.00595752339812621
0.00793736501079947
0.00793736501079947
0.00793736501079947
0.00915226781856872
0.00890028797697667
0.00793736501079947
0.00531857451404927
0.00396868250539974
0.00396868250539974
0.00396868250539974
0.00581353491719821
0.00793736501079947
0.00647948164147687
0.00721742260617916
0.00289776817854948
0
0.00396868250539974
0.00396868250539974
0.00396868250539974
0.00188084953205264
0.00387868970482176
0.00793736501079947
0.00793736501079947
0.00793736501079947
0.00483261339093495
0.00886429085671072
0.0119060475161992
0.0119060475161992
0.00957523398129192
0.00809035277175701
0.0119060475161992
0.00817134629231889
0.00949424046075305
0.0119060475161992
0.0130759539236742
0.0158747300215989
0.0119060475161992
0.0119060475161992
0.011510079193678
0.0057505399568191
0.00397768178543885
0.00793736501079947
0.00793736501079947
0.00652447804177083
0.00396868250539974
0.00896328293735954
0.0147228221742174
0.0119060475161992
0.0119060475161992
0.0116540676745929
0.00998020158386598
0.00807235421167173
0.00562455003599037
0.0113840892728483
0.00920626349891424
0.0119060475161992
0.0119060475161992
0.0119060475161992
0.0119060475161992
0.0119060475161992
0.011798056155512
0.0098362131029374
0.0155957523398118
0.0158747300215989
0.0158747300215989
0.0147498200144183
0.0148218142548546
0.0198434125269987
0.0198434125269987
0.0198434125269987
0.0198434125269987
0.023776097912175
0.0220572354211789
0.016297696184301
0.0158747300215989
0.0158747300215989
0.0148938084953332
0.00913426925845876
0.011312095032412
0.0103221742260613
0.0119060475161992
0.00990820734341247
0.011726061915034
0.0158747300215989
0.0158747300215989
0.0198434125269987
0.0228581713462814
0.0238120950323984
0.0238120950323984
0.0277807775377982
0.0255399568034671
0.0278437724981918
0.033603311735053
0.0357181425485976
0.0411537077033802
0.0501709863210765
0.0505129589632897
0.0447534197264358
0.0383009359251352
0.026781857451433
0.0198434125269987
0.0219402447804025
0.0199244060475164
0.0255219582433236
0.031281497480198
0.0317494600431979
0.0317494600431979
0.0357181425485976
0.0329913606911515
0.0283297336212911
0.0317494600431979
0.0357181425485976
