0.944874813425265
0.926339069187313
0.941705181695753
0.931910451049083
0.931330299569468
0.931142569451836
0.936999786771732
0.934312201181346
0.938339339285243
0.938445925189101
0.933062273444965
0.932776437986832
0.929124760118198
0.935946069716344
0.935562128917717
0.915196305463773
0.923766550064153
0.998865138730841
1.1325867839767
1.41741399631045
1.74082783776813
1.76463332500695
1.14607309161294
0.904198869041124
0.847776532769617
0.817641420359053
0.822257190505929
0.865881114248586
0.920810090142318
0.954784610539136
0.972731722734116
0.968679142940155
0.972910972288405
0.981169939740565
0.985704565673647
0.992124973346467
1
1.00239326956891
1.00232060591847
1.00787502665353
1.01298980406624
1.01182102054365
1.01931210639856
1.01726885537488
1.02248173812807
1.02603531065621
1.0354376199409
1.03937513326767
1.04599175162147
1.04681533574246
1.05216872665291
1.05533835838242
1.06327756812305
1.08596399749546
1.07481275320857
1.08627527464364
1.10662413697088
1.12380336756862
1.13129445342352
1.1427230526052
1.1653755597242
1.18547250884672
1.20063393011082
1.21993755594602
1.23041902397615
1.24673226763613
1.25250834074224
1.26749051245206
1.26526801187409
1.2734845765095
1.25918914218314
1.24352023308987
1.19728138740731
1.16677081476147
1.12460999056292
1.07580710632051
1.05350827916643
1.017750901514
1.00476957801112
0.9881874600197
0.975590077315446
0.959823062881677
0.9527328789521
0.952382860406871
0.957438273876121
0.951614978809616
0.940937300098499
0.935229071499187
0.940937300098499
0.944874813425265
0.940937300098499
0.936001772240087
0.936884720304538
0.936730912440298
0.948159511621971
0.933062273444965
0.934482970172281
0.943070175899323
0.930873695120395
0.939729775178871
0.929124760118198
0.93365938605128
0.940510956483122
0.940766531107559
0.945429523214832
0.945813464013459
0.940907039264802
0.934768805630414
0.943027773082575
0.940937300098499
0.942016458843935
0.948117108805223
0.94850104960385
0.941009963748944
0.947899117853887
0.947971781504332
0.947587840705705
0.948091667115174
0.940937300098499
0.940937300098499
0.948812326752032
0.944081490137962
0.951112310124094
0.944823930045168
0.944516314316687
0.936999786771732
0.934188654150798
0.940937300098499
0.940937300098499
0.929124760118198
0.936999786771732
0.936627987956156
0.940937300098499
0.948688779721489
0.944614419657181
0.940937300098499
0.942141163598426
0.935886705772897
0.935203629809139
0.948389644556358
0.943501338658347
0.93601025280344
0.930335946457527
0.933283925816002
0.929449336973379
0.944328584199048
0.93399244346981
0.93568567594826
0.930822811740297
0.930753809509553
0.934056626556905
0.929124760118198
0.92842106160804
0.929764275541261
0.933126456532061
0.936103539000285
0.933062273444965
0.925187246791432
0.93466221972657
0.939013934685662
0.93620164434078
0.918497964787178
0.933864077295618
0.924769383739406
0.925255091298228
0.933412291990194
0.931594354757253
0.925187246791432
0.931560432503855
0.931010541857936
0.935933927733294
0.944788850067822
0.944874813425265
0.957203321798086
0.968631920979758
0.968499893385866
0.954657402088884
0.957707148207555
0.958091089006182
0.948812326752032
0.948406605683058
0.95371509008099
0.946816297688749
0.946102960891293
0.933522539313739
0.925648670384154
0.930200257443933
0.925187246791432
0.929124760118198
0.935310215712982
0.929543780894171
0.932084881459723
0.928475606407839
0.921961912538173
0.940609061823618
0.933117975968711
0.933941560089712
0.920426149343664
0.99396237540186
1.10765741972773
1.3699001576971
1.72851898246561
1.84737045402949
1.26602935186017
0.931457319771855
0.838434745152319
0.815278411623842
0.822086421514989
0.864514962321027
0.910387986055609
0.962685078882711
0.971852436089368
0.972437406712633
0.985158336447429
0.991600524390597
0.992265481503708
0.999756567358615
1
1.00393751332677
1.00114700325223
1.01359173581619
1.02756259328737
1.00926546254715
1.03443112484591
1.01575005330707
1.03615346043411
1.02843455709271
1.04172484229588
1.05210088214611
1.05781161444118
1.06300021322827
1.06693772655503
1.06597729569649
1.09056280651564
1.08019158580905
1.09843783316917
1.10617119394151
1.11726307428495
1.14093537620595
1.13541487772428
1.17008461606793
1.1653718983045
1.17877474627911
1.19687566633834
1.21901952790423
1.23975348875405
1.2599267629467
1.25200085291307
1.27812944976613
1.27562593287367
1.28008057231691
1.2776946255874
1.23907157051424
1.22711004181334
1.16866623478851
1.12833915122565
1.08588034958591
1.05165757740404
1.02610065146725
0.988261281394093
0.980312433366166
0.952749840078799
0.974592062783804
0.959225950275365
0.957702329063906
0.925187246791432
0.925434340852518
0.933062273444965
0.934103848517303
0.923963918469053
0.929196266044697
0.934246860370298
0.917312220137898
0.929124760118198
0.923475895462335
0.918041360338106
0.945910411630005
0.929318467103433
0.933062273444965
0.955074107416963
0.939746736305569
0.935425282180176
0.946833258815449
0.944874813425265
0.953657072109346
0.953378371242759
0.947091337135637
0.948574870978244
0.947838596186492
0.952041322424992
0.950997243656902
0.943398414174203
0.948595493524643
0.938693019250183
0.947522311646805
0.941862650979694
0.944874813425265
0.952592370794857
0.952749840078799
0.948201914438719
0.951755486966859
0.944874813425265
0.946637048134461
0.952749840078799
0.947404929731715
0.945898269646956
0.952749840078799
0.967988744136995
0.972052308190058
0.937512093744551
0.933958521216412
0.943594624855192
0.955023224036865
0.946922883592593
0.946380315786077
0.943180423222868
0.952012219315242
0.940937300098499
0.952659057577706
0.936999786771732
0.948812326752032
0.955505270175986
0.952749840078799
0.956649769732466
0.95508374570426
0.957907020308244
0.944874813425265
0.952749840078799
0.944942657932062
0.956371257113735
0.955987316315108
0.951665862189714
0.952749840078799
0.956687353405566
0.948278239508866
0.952749840078799
0.951816008634253
0.947712545460196
0.948646376904741
0.944656822473928
0.948812326752032
0.944874813425265
0.948812326752032
0.946628567571111
0.954887535023272
0.948812326752032
0.948812326752032
0.944226817438853
0.945138868613051
0.948812326752032
0.952246013669329
0.951862072870703
0.956687353405566
0.956687353405566
0.952749840078799
0.960624866732332
0.959494824606798
0.967753792058959
0.960624866732332
0.956709133675913
0.960624866732332
0.957477015273171
0.956687353405566
0.955129809940709
0.952749840078799
0.958299441670221
0.957915500871593
0.960624866732332
0.960164600863558
0.96842356831572
0.96031725100385
0.96711678033165
0.991760497370293
0.998540561875637
1.00209413440378
0.998289806394851
0.990798720539944
0.992124973346467
0.996062486673233
0.992299403757107
0.988606480795674
0.992124973346467
0.984249946692933
0.979097585607146
0.9763749200394
0.970950023202469
0.968499893385866
0.964562380059099
0.969156369935628
0.968772429137
0.9763749200394
0.972437406712633
0.9763749200394
0.980312433366166
0.980312433366166
0.980312433366166
0.990602509858956
0.956687353405566
0.989532019924727
1.07064413747133
1.22028795098697
1.57553185980121
1.88212941241771
1.74732093732837
1.16924447555293
0.926762720859074
0.881646782710507
0.86612454688993
0.896245201869549
0.956031065103663
1.00402231896026
1.0193884314687
1.0236250799606
1.02469209672299
1.03253570481887
1.03360272158126
1.03937513326767
1.04331264659443
1.04915174506369
1.05118767324797
1.06318312420226
1.06300021322827
1.0708752398818
1.08371855892318
1.0708752398818
1.07481275320857
1.08632133888007
1.09056280651564
1.08872308901235
1.09777287605606
1.1063128598227
1.1063128598227
1.11763853452023
1.12206291312977
1.13262070623004
1.13781296643684
1.14771062156765
1.15903147712153
1.16652256297644
1.18188867548488
1.19687566633834
1.21261608135811
1.22759825306792
1.24335312551863
1.26937513646784
1.28041979485088
1.30520151635102
1.31893857946811
1.33075111944841
1.33948731389604
1.34256365942871
1.33862614610194
1.32739491532521
1.30712603948781
1.27092651481726
1.23913575360134
1.18632018868599
1.14665440081651
1.11015824467657
1.07779099340074
1.05454985423877
1.03524622840356
1.02381762922189
1.02247209984077
1.01277297083884
1.01306130999272
1.01450262926643
1.00211225325443
1.01037122070659
1.00787502665353
1.00393751332677
1.00393751332677
1.00393751332677
1.00345912860734
1.00479983884482
1.00912129297021
1.00624481953823
1.00778424415243
1.00547693794098
1.00671954283795
1
1
1.0000036614197
1.00787502665353
1.0118125399803
1.00902318762972
1.00546961510158
1.00585355590021
1.0016375299547
1.0118125399803
1.0118125399803
1.00048570755882
1.00787502665353
1.00787502665353
1.00854114149059
1.01680010894276
1.01575005330707
1.0118125399803
1.0118125399803
1.0092267211501
1.0118125399803
1.01239635287962
1.01968756663383
1.01199660867824
1.01238054947687
1.00882697694873
1.0118125399803
1.01009270808785
1.01575005330707
1.01036274014324
1.00787502665353
1.00651119017393
1.00757704921236
1.00008596335744
1.00046990415607
1
1.00123778575333
1.00162172655196
1
0.998452094822449
1.00277354894784
1
1.00354143054509
1
1
1
1.00393751332677
1
1
1
1
1
1
1.00393751332677
1.00393751332677
1.01443478475964
1.00787502665353
1.01147350569416
1.00787502665353
1.0118125399803
1
1.00393751332677
1
1
1
1
1
1
1
1
1.00247923292636
0.997136826275011
0.994681689066937
1
1
1.00046142359273
1.00084536439135
1
1.00232426733816
1
1.00393751332677
1.00393751332677
1.00393751332677
1.0070658999635
1.00785440410713
1.00357419507454
1.00712776760268
1.00280631347728
1.00151514064812
1.00393751332677
0.998345508918605
1.002666963044
1
1.00393751332677
1.00799375454041
1.0118125399803
1.00458666703714
1.00103309450899
1.00645799134591
1.00787502665353
1
1
1.00098471482463
1
0.996279319900609
1.00770791908228
1
1
1
1
0.997913188435617
1
1
0.996761366039732
1
1.00386851109601
1.02271919390183
1.0354376199409
1.0354376199409
1.02916735871263
1.0236250799606
1.02206021365635
1.02244415445498
1.01340650939429
1.01968756663383
1.0236250799606
1.01968756663383
1.01255131846781
1.00899774593967
1.00301332016953
1.00393751332677
1.00227454168202
1
1
1.00051114924886
1.004064721777
1.00787502665353
1.00787502665353
1.00992425454484
1.01322109472458
1.00787502665353
1
0.99763351809291
1.0650218722294
1.16663935191097
1.43032647759306
1.83015264204536
1.99279592615175
1.4338232745852
1.02882988688305
0.929124760118198
0.893467991502
0.912387676538575
0.949240016339174
1.00605959311631
1.02820943154981
1.04325212492703
1.03937513326767
1.04248424332977
1.04846250398449
1.06140392836636
1.0590626999015
1.06300021322827
1.06812713262401
1.07561821847892
1.07129676435353
1.07492550422787
1.07944298078639
1.08589499526471
1.0945003198424
1.09693965364775
1.10049322617589
1.1063128598227
1.10888788264163
1.11509145708707
1.12206291312977
1.12600042645654
1.13362720132502
1.14111828717993
1.14467185970807
1.15610045888975
1.16968255641864
1.17678970147492
1.19038625643477
1.20575236894321
1.22173621660436
1.24065590164094
1.26366324644883
1.2784952717141
1.30043444203565
1.31633464178726
1.33300272313612
1.34256365942871
1.35437619940901
1.3594134940276
1.36225122606254
1.35798181304121
1.34261570053277
1.3163090118494
1.27496811035217
1.23319122695222
1.18982653925373
1.1437282017284
1.10944240418338
1.09090665994542
1.06612378072133
1.05075766821289
1.03539155570445
1.02790046984955
1.02290326259979
1.01968756663383
1.01819786767577
1.01575005330707
1.01349247275174
1.0118125399803
1.00605092430516
1.00840313702909
1.01546171415321
1.00393751332677
1.01118882795998
1.00787502665353
1.01042094636272
1.0118125399803
1.00393751332677
1.00787502665353
1.00888518316822
1.00393751332677
1.00393751332677
1
1.00052560667982
1.00787502665353
1
1
1
1.00393751332677
1.00110826185518
1.00321319227022
1
1
1
1
1
0.997641810408457
0.99409922213938
0.996062486673233
0.993331340542141
0.991302546949416
0.995624001074809
0.996117031473033
1
1
1
0.998518781605284
0.997927645866579
1.00224909999197
1
1.00603396317846
0.999463409061092
0.996062486673233
1
1
1
1
1.00176705385285
0.99821348132471
0.996062486673233
0.996062486673233
1
0.995811731192448
0.99986681468216
0.99948287388353
0.99696355358833
1.00530501122608
1
0.998115375984217
1.00637434343638
1
1
0.992124973346467
0.996062486673233
0.996062486673233
0.999197038425383
0.993311875719713
0.994491643501358
0.990142243990204
0.987447523808203
0.9881874600197
0.9881874600197
0.995615520511459
0.9881874600197
0.98850837545518
0.981017289600276
0.98533874372567
0.985722684524299
0.986106625322928
0.984249946692933
0.985562899792448
0.986329435417928
0.984249946692933
0.9881874600197
0.991902163251467
0.987580709126071
0.991134281654209
0.9881874600197
0.9881874600197
0.984249946692933
0.9881874600197
0.991097855705078
0.987544283176938
0.984249946692933
0.98806275526521
0.9881874600197
0.985142533044681
0.9881874600197
0.984249946692933
0.984249946692933
0.986678296239196
0.9881874600197
0.9881874600197
0.99141029057723
0.988160860605689
0.9881874600197
0.977169401050667
0.980312433366166
0.981874795974691
0.98225873677332
0.977982189160385
0.981535761688522
0.980312433366166
0.980767880091264
0.984392958545929
0.980937303110427
0.984249946692933
0.981392749835555
0.982785689424917
0.984249946692933
0.980312433366166
0.9763749200394
0.977312412903636
0.969053445451473
0.968839115919822
0.976803579102701
0.979714163035888
0.97341961784154
0.972437406712633
0.966312472785263
0.972437406712633
0.974955381036037
0.97927683516143
0.9763749200394
0.980312433366166
0.984133722501791
0.980312433366166
0.993410169308039
1.00253609317405
1.01016055259464
1.00190158514248
1
1
0.996812249419829
0.999268356104063
0.996044367822573
0.992124973346467
0.989759460915537
0.984249946692933
0.981866315411341
0.986249637175896
0.974759170355066
0.975143111153693
0.975527051952322
0.972437406712633
0.972357420222813
0.968803847694674
0.967811998278457
0.965634215965137
0.966018156763765
0.970597689209338
0.974151261737476
0.965840064933438
0.950704273607202
1.00562361121363
1.08482488182604
1.30156811734369
1.7201996533566
1.97760480879731
1.5748716182954
1.0876859848253
0.913688299407253
0.877937086870231
0.888944349827963
0.916015258688973
0.973818392566803
0.996170230301025
1.00738334222711
1.00699940142848
1.01575005330707
1.0236250799606
1.0294726589932
1.03784900836046
1.02870477739594
1.03301659323402
1.03937513326767
1.04330300830712
1.04685658083526
1.05512518657473
1.0579012392183
1.05512518657473
1.06300021322827
1.07481275320857
1.07481275320857
1.08662529318887
1.09056280651564
1.0945003198424
1.09843783316917
1.10427461619045
1.10918701780676
1.11667810366169
1.12023167618982
1.1316602753715
1.14442726934273
1.15845498706161
1.16988358624328
1.18937378447216
1.20475069299187
1.22050074629894
1.24316057625733
1.25987587956661
1.27609718300151
1.29107935471132
1.31143553987794
1.31605362547276
1.33141973798119
1.33834146836778
1.3385268830375
1.32335929665794
1.30098530215768
1.26362913594759
1.21522831135447
1.16557640130101
1.12773703122786
1.09383517448147
1.06070004160838
1.03822678404367
1.01575121103103
1.00432261184936
1
1
0.992124973346467
0.992124973346467
0.986554749208667
0.986938690007295
0.983385117479157
0.983769058277786
0.980409380982684
0.980312433366166
0.980312433366166
0.984249946692933
0.982811131114948
0.986072703069546
0.984249946692933
0.980312433366166
0.979349498811881
0.984249946692933
0.980507486323194
0.984249946692933
0.980312433366166
0.979355663927308
0.982993853841141
0.980312433366166
0.980312433366166
0.980312433366166
0.980312433366166
0.983572847596797
0.9881874600197
0.984249946692933
0.980312433366166
0.984249946692933
0.977617524936377
0.980312433366166
0.976291460377694
0.980312433366166
0.977534065274672
0.980312433366166
0.984249946692933
0.984249946692933
0.97675153799864
0.981072992124036
0.98260143247916
0.987306827403188
0.982337565539178
0.9881874600197
0.9881874600197
0.9881874600197
0.992124973346467
0.992124973346467
0.988465972638458
0.988849913437083
0.9881874600197
0.984249946692933
0.984249946692933
0.980312433366166
0.984249946692933
0.984249946692933
0.976962394358406
0.979905366325414
0.976194512761148
0.987623111942819
0.984249946692933
0.986855230345563
0.986471289546934
0.978212322094773
0.98279648543619
0.984249946692933
0.984249946692933
0.987885821158842
0.984249946692933
0.984249946692933
0.985100130227955
0.985484071026582
0.984249946692933
0.980312433366166
0.985801513290185
0.984249946692933
0.985033631692927
0.988587204221066
0.992124973346467
0.992124973346467
0.992124973346467
0.994926467680085
0.996960080416449
0.982346046102527
0.9881874600197
0.98157816450527
0.984249946692933
0.983752097151087
0.980312433366166
0.97664495209481
0.979658460512131
0.980312433366166
0.980312433366166
0.978506638116254
0.9763749200394
0.980312433366166
0.980312433366166
0.980908388248517
0.980312433366166
0.980312433366166
0.980312433366166
0.9881874600197
0.97898868425538
0.978082609948817
0.978466550747444
0.9763749200394
0.9763749200394
0.973131466935469
0.97274752613684
0.980312433366166
0.979854671193119
0.977216623011071
0.980312433366166
0.9763749200394
0.978368445406949
0.974814872878799
0.973613513074606
0.980312433366166
0.972845631477349
0.976350636073314
0.972437406712633
0.973181004343801
0.9752473816096
0.9763749200394
0.980312433366166
0.9763749200394
0.975100708336947
0.975484649135574
0.972943736817831
0.980312433366166
0.980312433366166
0.979666941075482
0.982371299544788
0.982836572804996
0.9881874600197
0.9881874600197
0.989559777062652
0.984249946692933
0.983645511247233
0.984029452045858
0.984249946692933
0.984249946692933
0.986324804522078
1.00524448955866
1.0118125399803
1.01575005330707
1.00787502665353
1.00502399491158
1.00393751332677
1.00393751332677
1.00787502665353
1.0004492816097
1.00393751332677
1
0.996062486673233
0.992092397064832
0.991356903501414
0.984249946692933
0.985050592819627
0.976791625367465
0.9763749200394
0.979961257096973
0.98745234295188
0.992124973346467
0.993627972011545
0.996062486673233
0.996062486673233
0.989559588814857
0.96939864485304
1.0183241066498
1.09620162815131
1.32023376197519
1.74019270851857
1.98991885973915
1.5477924453561
1.08373614126766
0.925595283308341
0.899005451110365
0.902559023638507
0.930963508145348
0.985165847534627
1.00409247891497
1.019148660247
1.01968756663383
1.0236250799606
1.02980937783142
1.03150010661413
1.03937513326767
1.0444076087426
1.0472501599212
1.05151475379888
1.05512518657473
1.05950350094785
1.05988744174648
1.0602713825451
1.0708752398818
1.06889867564095
1.07481275320857
1.0826877798621
1.08743441987891
1.09492550573381
1.10237534649594
1.10597016411686
1.10237534649594
1.11307730917314
1.12450590835481
1.12600042645654
1.13161305341108
1.14039531209514
1.15840776510119
1.16931307305097
1.19687566633834
1.20426151226115
1.22318119729773
1.23816336900755
1.26495808069767
1.28387776573424
1.30102423180255
1.32171713580741
1.33276179419046
1.34712256932787
1.35020123030847
1.35029220105739
1.33181197109537
1.30684599264948
1.2729441359031
1.23342251761058
1.18939036910325
1.14612610219319
1.10300253168816
1.08052927412345
1.05512518657473
1.03558275899402
1.0249220414096
1.01344506254355
1.00787502665353
1
1
1
0.996062486673233
0.992124973346467
0.992124973346467
0.996062486673233
0.992459188488959
0.996062486673233
0.994960389933485
0.997027924923241
0.998130021662993
0.993808567537599
0.994762833280731
0.995146774079359
0.992124973346467
0.9881874600197
0.992124973346467
0.996062486673233
0.997992017201473
0.994674554475345
0.991731206012725
0.996436600936748
0.996062486673233
0.997076304607608
0.996692363808984
0.995816550336111
0.992124973346467
0.984771891953064
0.989093346078461
0.986897633162311
0.990451205690449
0.986129751565053
0.9881874600197
0.991013050071603
0.992852955822702
0.9881874600197
0.99598268843119
0.995638646753585
0.992124973346467
0.9881874600197
0.985825609008458
0.986209549807085
0.9881874600197
0.992124973346467
0.992124973346467
0.9881874600197
0.996120692892718
0.992450707925608
0.99535281129546
0.984249946692933
0.993602530321494
0.990263475572808
0.992124973346467
0.993433107302319
0.99304916650369
0.992124973346467
0.992281284906433
0.996062486673233
1
0.999004489164088
1
1
0.997852666768209
0.998593760703649
1
0.999361642300901
0.996062486673233
0.995932962775078
1
0.996959892168644
0.990843627052426
0.992124973346467
0.996062486673233
0.997566831310076
1
1
1.00035252224095
1
0.996477846029533
1
0.992124973346467
0.99762966842541
1
1
0.998781490821287
0.996062486673233
0.995611859091772
0.996062486673233
0.99574523265744
0.999298805185579
1
1.00146907641168
1
1.00170055531783
0.998683385480797
1.00580286076791
1
0.996227278796548
1.00021914867531
0.999396910526061
1.00098703027256
1.00256654225558
1.00218260145695
1
1.0028294397194
1.00290673426569
1.00129367652489
1.00367461586294
1.01562900997226
1.0073700425201
1.00088892493206
1
1.00165680652932
1
1.00151282520019
1.00674614225197
1
1.00393751332677
1.00393751332677
1
1.00079081959158
1.0011747603902
1
1
1
1
1
1.00393751332677
1.00787502665353
1.00424628677921
1.00718231240246
1.0021533100994
1
1.00393751332677
1.00564654920795
1.00787502665353
1.00975733522138
1
1.00752848128021
1.00766435854157
1.00334290441618
1.02560549386894
1.03937513326767
1.0354376199409
1.03395370960264
1.0236250799606
1.02466433958502
1.0236250799606
1.0236250799606
1.0236250799606
1.02805909685745
1.01663049767578
1.00913941182087
1.0141017273411
0.998094753437829
1
1
1
1
1.00393751332677
1.00787502665353
1.01024786192383
1.01064626015344
1.01813734600836
1.0118125399803
1.00231810222273
1.00617735152706
1.07119537408897
1.18560469645136
1.49511684267953
1.82330798972047
1.86178639518434
1.23886965592466
0.981568930950685
0.934898329528574
0.92690476323596
0.918709009394737
0.961435527641936
1.00957210879946
1.03580112644093
1.04331264659443
1.04331264659443
1.0472501599212
1.05377117663025
1.05732474915839
1.06693772655503
1.0708752398818
1.06903320693058
1.07547655259772
1.08634543459835
1.08662529318887
1.09056280651564
1.08749725699423
1.0945003198424
1.10303316901746
1.10237534649594
1.1063128598227
1.11025037314947
1.11025037314947
1.11850336373401
1.12993196291568
1.1299379397833
1.14491413462549
1.14846770715363
1.15441705294639
1.16344987886344
1.1771880997045
1.19024459055357
1.20868820631864
1.22097681557045
1.24028044140565
1.25170904058733
1.27821193995169
1.28743847285397
1.30423877004455
1.32709596840789
1.33641462978306
1.34793188426571
1.35235491690349
1.35831371273577
1.34650117275547
1.3313322404042
1.31279649616624
1.27159726055019
1.23510341985817
1.19025153689733
1.15020412367717
1.11380491515376
1.08556907243775
1.06492088669755
1.05089933409409
1.03553322158566
1.02410462240398
1.02756259328737
1.0236250799606
1.01575005330707
1.02371817790963
1.01421178641682
1.00787502665353
1.00864541194652
1.01575005330707
1.01181504367603
1.00825646375644
1.01104716207877
1.00787502665353
1.00940828615232
1.00787502665353
1.0118125399803
1.0118125399803
1.01575005330707
1.01229708981513
1.00787502665353
1.01940423487144
1.01575005330707
1.0118125399803
1.01575005330707
1.01756914826398
1.01575005330707
1.01575005330707
1.01872097065986
1.01516739813172
1.01968756663383
1.01987279305575
1.00844419387408
1.01765626934539
1.01575005330707
1.01747104292348
1.01968756663383
1.01823892452074
1.01575005330707
1.01575005330707
1.01968756663383
1.01575005330707
1.00834608853357
1.0148950506284
1.01429042693488
1.01737293758298
1.00787502665353
1.00632827919994
1.00787502665353
1.00787502665353
1.00787502665353
1.01180155572123
1.01537709676752
1.0118125399803
1.00787502665353
1.01575005330707
1.01777884689977
1.01575005330707
1.01448914131163
1.00569145572039
1.0118125399803
1.01575005330707
1.00027485119907
1.00459630532444
1.0118125399803
1.00787502665353
1.00787502665353
1
1.00515699198163
1.00393751332677
1.0118125399803
1.01201973492036
1.01575005330707
1.0118125399803
1.0118125399803
1.00393751332677
1.01010003092723
1.00184106347508
1.01035541730385
1.00501069520459
1.00718578557434
1.0118125399803
1.00015728103611
1.00393751332677
1.00787502665353
1.00787502665353
1.0118125399803
1.0118125399803
1.00787502665353
1.00904631387184
1.00472485974645
1.01221594560135
1.0118125399803
1.01575005330707
1.0164984700819
1.0118125399803
1.0118125399803
1.0118125399803
1.00787502665353
1.00914441921232
1.0118125399803
1.0118125399803
1.0118125399803
1.00787502665353
1.01575005330707
1.01264729660815
1.01039434694872
1.01575005330707
1.01618468923798
1.01438255540777
1.01575005330707
1.0118125399803
1.0118125399803
1.01951930133862
1.01575005330707
1.02268893306813
1.01968756663383
1.04384210294174
1.05118767324797
1.0575970966617
1.0382934708265
1.03219782825668
1.03575140078482
1.03557793985031
1.03589172069424
1.03066206506217
1.02878457563796
1.0236250799606
1.01769770268598
1.0236250799606
1.01575005330707
1.01968756663383
1.00869879902234
1.01178459459453
1.0118125399803
1.01501011709558
1.01687393031718
1.02119538444257
1.01764181191444
1.01968756663383
1.0184096935117
1.00304358100325
1.03900756061509
1.1076994178115
1.26310888491743
1.61999242264902
1.89881114173174
1.67015414539308
1.13291007133459
0.96447316001466
0.927558359594368
0.912382669147111
0.932165244445155
0.981209057633215
1.0193679971701
1.03937513326767
1.05026000691884
1.0590626999015
1.06524217862866
1.06485823783003
1.06546364275191
1.07481275320857
1.07875026653534
1.0826877798621
1.08656361379751
1.0945003198424
1.0945003198424
1.09843783316917
1.09843783316917
1.1043314764382
