0.895822549583368
0.892061755543143
0.887488353550038
0.891655451566703
0.890030235660704
0.891655451566703
0.898260373442366
0.895822549583368
0.892572117771371
0.895312187355141
0.8957184913317
0.899687401875253
0.899989647600034
0.895822549583368
0.895822549583368
0.893895087952543
0.899989647600034
0.904156745616699
0.903136021160363
0.900604068079828
0.899989647600034
0.899989647600034
0.899385156150371
0.899989647600034
0.899989647600034
0.898166244220812
0.89805225693903
0.899989647600034
0.898864864892029
0.899271168868588
0.896134724338373
0.899989647600034
0.899989647600034
0.903250008442145
0.899989647600034
0.897541894710921
0.893781100670696
0.893290596502816
0.897051390543041
0.896645086566482
0.892071684573376
0.891645522536589
0.891655451566703
0.892458130489588
0.891655451566703
0.894207262707484
0.895698633271353
0.902417542428917
0.902823846405358
0.904156745616699
0.904156745616699
0.904156745616699
0.904156745616699
0.904156745616699
0.904156745616699
0.90150087622425
0.899989647600034
0.899989647600034
0.904156745616699
0.907293190146914
0.900613997109943
0.904156745616699
0.904156745616699
0.904156745616699
0.904156745616699
0.899989647600034
0.899989647600034
0.899989647600034
0.901530663314593
0.899989647600034
0.899989647600034
0.904478849401818
0.900073847791473
0.904156745616699
0.899989647600034
0.908323843633364
0.910781525552591
0.908323843633364
0.905801819582926
0.904156745616699
0.908323843633364
0.907897681596576
0.908323843633364
0.908323843633364
0.908323843633364
0.911291887780784
0.916658039666695
0.918669701488905
0.919076005465464
0.92082513768336
0.919888613418463
0.92082513768336
0.916781955978592
0.921107525347911
0.924303544058923
0.919730142065786
0.924992235700025
0.923084632129429
0.922678328152924
0.92082513768336
0.92082513768336
0.92082513768336
0.92082513768336
0.92082513768336
0.92082513768336
0.919834200317367
0.912490941650029
0.919021592364367
0.912490941650029
0.912490941650029
0.916658039666695
0.912490941650029
0.912490941650029
0.916658039666695
0.912490941650029
0.919938258569035
0.922118320774125
0.924992235700025
0.92709802674379
0.924992235700025
0.92082513768336
0.924992235700025
0.925428326766927
0.920854924773703
0.925368752586133
0.924992235700025
0.924992235700025
0.924992235700025
0.92082513768336
0.930918394964701
0.936031946276495
0.946774179078362
0.941660627766686
0.937493529750021
0.938038447018895
0.941660627766686
0.935496564908274
0.923500865136038
0.92082513768336
0.931022453216369
0.940203812243525
0.933326431733356
0.940372212626409
0.933088528139676
0.924992235700025
0.921974546401999
0.919844129347481
0.92082513768336
0.924992235700025
0.931126511468037
0.931765557958568
0.933326431733356
0.941660627766686
0.942002589612034
0.954097579685471
0.9453570796757
0.941660627766686
0.919224547787996
0.959003407622874
1.03321365408015
1.20747952326531
1.59701738991702
1.90208138679847
1.71319816075738
1.10727221318095
0.874852427899304
0.84551473452943
0.836303981541039
0.853562168076756
0.910866118873167
0.957699902372931
0.974997411900008
0.982375225608214
0.983881686282023
0.991665803966669
0.995832901983335
1
1.00725905847599
1.00416709801667
1.00833419603333
1.00833419603333
1.01666839206666
1.02189593066012
1.02500258809999
1.02916968611666
1.02916968611666
1.02973446144586
1.03333678413332
1.03750388214999
1.04405439092455
1.04781518496478
1.05000517619998
1.05833937223331
1.07084066628331
1.07535965517544
1.08334196033331
1.0912154392891
1.10001035239997
1.10707122340276
1.12582078050243
1.14376249759975
1.15753234872976
1.1775552308602
1.19341101497374
1.21343389710419
1.2334567792344
1.24204834379246
1.26516834746172
1.27802630033767
1.28595419239448
1.29586395918323
1.29825213789166
1.29174611318808
1.27309584638943
1.2519529495018
1.20804749402878
1.16377982552098
1.11580616920376
1.07820338988166
1.0404469071575
1.01396764547409
0.993949924423428
0.974997411900008
0.966663215866678
0.958329019833347
0.941918389420594
0.937939156717972
0.941660627766686
0.941660627766686
0.937493529750021
0.92915933371669
0.933326431733356
0.92915933371669
0.93215200387478
0.937493529750021
0.937855349655597
0.937538013821003
0.941660627766686
0.941660627766686
0.948731427799595
0.945827725783352
0.941660627766686
0.944142935696667
0.944549239673107
0.945827725783352
0.941660627766686
0.945827725783352
0.945827725783352
0.941660627766686
0.941660627766686
0.937493529750021
0.941660627766686
0.937493529750021
0.945827725783352
0.944851485397998
0.941090691357875
0.941496995334332
0.941660627766686
0.941660627766686
0.942715907263802
0.945827725783352
0.943959838333214
0.943553534356707
0.948508221186512
0.945827725783352
0.945153731122869
0.945827725783352
0.945827725783352
0.945827725783352
0.945827725783352
0.938851054971997
0.937493529750021
0.941660627766686
0.939084190615152
0.940476270877995
0.941660627766686
0.937865278685713
0.937493529750021
0.937934388767329
0.936646366756154
0.934579898703663
0.937493529750021
0.937493529750021
0.941660627766686
0.941660627766686
0.937493529750021
0.941660627766686
0.941591124555886
0.937493529750021
0.933326431733356
0.938642938468693
0.937493529750021
0.935531513078327
0.935125209101824
0.934718905125304
0.938479699165489
0.942240493205612
0.945654164320883
0.945827725783352
0.941660627766686
0.941660627766686
0.940208973323156
0.937493529750021
0.941660627766686
0.941660627766686
0.941660627766686
0.941660627766686
0.937493529750021
0.937493529750021
0.949459835561154
0.945827725783352
0.945827725783352
0.943414527935107
0.943820831911547
0.948394233904772
0.942854913685491
0.945827725783352
0.941660627766686
0.941660627766686
0.937493529750021
0.941660627766686
0.941660627766686
0.9441778838666
0.943771579890159
0.947532373930266
0.949994823800017
0.945827725783352
0.957843283615873
0.945907158024266
0.946154597518887
0.953428746104598
0.949994823800017
0.952616138151598
0.956114009458262
0.954161921816682
0.958329019833347
0.957332921387765
0.954161921816682
0.945827725783352
0.946050539267327
0.946456843243768
0.948959402363042
0.944386000369936
0.945827725783352
0.947740490433602
0.951501284473751
0.954161921816682
0.958329019833347
0.954161921816682
0.945946481015659
0.953636862607934
0.958329019833347
0.959666686995094
0.966663215866678
0.962496117850013
0.958329019833347
0.954161921816682
0.961698206877652
0.941269020770766
0.941645930786048
0.945406724826272
0.95667440996607
0.958329019833347
0.960856204963375
0.949994823800017
0.944113148606323
0.945827725783352
0.940758658542657
0.937493529750021
0.933415793004385
0.937493529750021
0.937493529750021
0.941660627766686
0.941660627766686
0.947769884394817
0.945827725783352
0.945827725783352
0.943815670831959
0.92082513768336
0.971797411496829
1.03996790453576
1.22452162991358
1.61936764678316
1.91182471885026
1.62234818034451
1.0670104194331
0.86627079237196
0.838320018184626
0.834723642835042
0.859508578530843
0.920281006672391
0.969800053526076
0.981488739622953
0.986170967818371
0.987498705950004
0.993806150051301
1
1
1.00335925801419
1.00416709801667
1.01249652609947
1.01584624821273
1.0200181141798
1.02500258809999
1.02753970226013
1.02083549008333
1.0308941923238
1.02916968611666
1.03750388214999
1.03384237841102
1.03750388214999
1.04167098016665
1.04167098016665
1.05000517619998
1.05417227421665
1.06057424066863
1.06850213272545
1.07643002478227
1.08537387334493
1.10062000492924
1.11688209301944
1.13314418110954
1.14879700979957
1.16881989192978
1.18609754339675
1.20652672950352
1.22278881759374
1.24057722441776
1.25226591051487
1.26395459661175
1.27950297392105
1.29159796399449
1.29169686116657
1.28427417025832
1.2680120821681
1.23364385829031
1.19391066191349
1.15182821669093
1.11178245243004
1.06503803020147
1.03251385402103
0.999989677840821
0.98373275083019
0.963303564723422
0.951208574649867
0.943280682593096
0.935467170947171
0.933326431733356
0.933326431733356
0.933326431733356
0.933326431733356
0.924992235700025
0.92915933371669
0.932623043111614
0.924992235700025
0.924992235700025
0.924992235700025
0.926830729188951
0.924992235700025
0.926018121235951
0.920205556123976
0.9247789581171
0.916658039666695
0.917257370036767
0.912490941650029
0.913902879973102
0.916658039666695
0.914715487926101
0.919288889919325
0.921955081470954
0.924992235700025
0.924992235700025
0.92508120384199
0.924992235700025
0.924992235700025
0.924992235700025
0.924992235700025
0.92082513768336
0.924992235700025
0.917892041705957
0.917485737729398
0.908745237719626
0.92082513768336
0.916658039666695
0.92082513768336
0.919621315863624
0.919215011887065
0.92082513768336
0.914235305917401
0.915319979375764
0.916658039666695
0.912490941650029
0.920705989321988
0.916370884051618
0.917351499258322
0.922792708563829
0.927653266172064
0.931414060212234
0.922673560202399
0.92082513768336
0.924992235700025
0.924992235700025
0.916881246279735
0.92082513768336
0.924402834360066
0.921820842999877
0.926394244992983
0.92915933371669
0.92915933371669
0.930705510510838
0.933326431733356
0.92915933371669
0.929486598581399
0.933326431733356
0.929644676804982
0.936601882685172
0.92915933371669
0.92915933371669
0.927048774722401
0.92915933371669
0.92915933371669
0.929996960809508
0.92915933371669
0.933301412593538
0.933326431733356
0.940873038953505
0.92915933371669
0.93429313621766
0.92915933371669
0.924992235700025
0.924992235700025
0.924992235700025
0.92915933371669
0.933455509124842
0.937493529750021
0.937493529750021
0.933326431733356
0.934822570247868
0.930699563173046
0.92915933371669
0.92915933371669
0.92915933371669
0.925631675319639
0.933326431733356
0.929332502050094
0.929738806026535
0.924992235700025
0.931934351470512
0.927360949477288
0.92915933371669
0.926548341524288
0.92915933371669
0.92915933371669
0.93366362562818
0.925130455863496
0.933326431733356
0.93244471369862
0.932038409722179
0.935799203762287
0.937459367838337
0.931666267657424
0.930413193816181
0.92915933371669
0.92915933371669
0.929124385546757
0.924992235700025
0.92915933371669
0.933326431733356
0.934916699469422
0.933326431733356
0.933326431733356
0.931968513382197
0.92915933371669
0.936948219351861
0.929298340138292
0.937226232195174
0.940987026235287
0.942740533274556
0.947022404831221
0.937493529750021
0.943528908345954
0.938736674561186
0.921880810309629
0.920175769033632
0.924992235700025
0.933326431733356
0.936923986470291
0.942636475022975
0.937493529750021
0.931537976524067
0.92915933371669
0.922391172537738
0.926839871960816
0.927652479913935
0.924992235700025
0.933208069630113
0.932860946705295
0.937493529750021
0.930437426697752
0.933326431733356
0.937493529750021
0.925819147504598
0.930047392218447
0.995953229731901
1.11139634924232
1.40586896401824
1.77474018449964
1.87827234876066
1.23671291645686
0.897685719484566
0.833316079333389
0.807694695932162
0.82075122941055
0.860882373249718
0.917768518523242
0.93779140065345
0.954161921816682
0.958329019833347
0.962496117850013
0.969354033429059
0.977281925485896
0.974997411900008
0.977692604283808
0.983331607933339
0.987498705950004
0.987498705950004
0.987498705950004
0.995273287733719
0.995832901983335
1
1
1.00198226786105
1.00574306190116
1.01250129405
1.02083549008333
1.02500258809999
1.02916968611666
1.03333678413332
1.03750388214999
1.05000517619998
1.05915753439497
1.06875989437936
1.07084066628331
1.08878277650969
1.10331003623347
1.11297275665668
1.13751423454995
1.14931253310739
1.1742603149771
1.19468950108399
1.21771537553158
1.22721367726431
1.23930866733775
1.25557075542797
1.26669427306658
1.27502846909991
1.25851894151508
1.24660110146711
1.22698452331344
1.1917596005405
1.15441458287246
1.11396251463529
1.06973416911916
1.03157654349807
0.997848938627006
0.977826056496758
0.958066097099849
0.949994823800017
0.937493529750021
0.933326431733356
0.922187430855861
0.918426636815754
0.92082513768336
0.915072146752088
0.911311352711864
0.916658039666695
0.913224903620362
0.916658039666695
0.912490941650029
0.909175774577756
0.912490941650029
0.910826402752638
0.914587196792863
0.914180892816304
0.916658039666695
0.91578069645342
0.912490941650029
0.912490941650029
0.912490941650029
0.909071716326088
0.912490941650029
0.912490941650029
0.912490941650029
0.912490941650029
0.913878647091532
0.916658039666695
0.920250040194857
0.916320452642807
0.920350116754352
0.916658039666695
0.912490941650029
0.913947364044084
0.914353668020578
0.916658039666695
0.910999177956934
0.912490941650029
0.908323843633364
0.908323843633364
0.904156745616699
0.904696501806085
0.901881767931925
0.904156745616699
0.906565175514418
0.906321717712084
0.906728021688643
0.905346263584979
0.899989647600034
0.899989647600034
0.899989647600034
0.907888145695646
0.903314743702422
0.897070855474086
0.901644257467311
0.902095831772982
0.894122669386979
0.898696071380085
0.892542723810092
0.891655451566703
0.891580787276314
0.89515927021125
0.888226297212647
0.885609750811537
0.887488353550038
0.895569162750803
0.891655451566703
0.88471889000499
0.891655451566703
0.888073380068655
0.891655451566703
0.891655451566703
0.891655451566703
0.890615262179292
0.886041860186097
0.889802654226269
0.887488353550038
0.890153758843493
0.888583742296764
0.899989647600034
0.891938232360429
0.899989647600034
0.899989647600034
0.899989647600034
0.894480114471096
0.893404190655535
0.895822549583368
0.895822549583368
0.891655451566703
0.895822549583368
0.899989647600034
0.899989647600034
0.895822549583368
0.895822549583368
0.895822549583368
0.897467230420532
0.895822549583368
0.898279838373532
0.891655451566703
0.89344985411371
0.891655451566703
0.887572946870541
0.891655451566703
0.895094534950873
0.891655451566703
0.898449025014539
0.897769476145359
0.898175780121863
0.895822549583368
0.904156745616699
0.899989647600034
0.899800996027862
0.904156745616699
0.899989647600034
0.90101990795733
0.906887279299537
0.912490941650029
0.91440886737987
0.910979319896705
0.911385623873189
0.908323843633364
0.908323843633364
0.88782913600819
0.888008251679196
0.894896347477651
0.899989647600034
0.903467267717465
0.906178729598208
0.898373967595084
0.89461317355486
0.892458523618652
0.883718023608883
0.891645915665654
0.891655451566703
0.892477595420752
0.895822549583368
0.898354895792986
0.895822549583368
0.901709385856651
0.906783614177053
0.909230973936984
0.906821364651828
0.896295161336465
0.964792526111696
1.05460752862379
1.31934725447209
1.70874891700452
1.88612636278512
1.32004858672736
0.923147845275077
0.83016016987201
0.808918375812245
0.817442009675879
0.849361301277573
0.913587902913133
0.944807394456169
0.958329019833347
0.966663215866678
0.966663215866678
0.979164509916674
0.983331607933339
0.988207648780419
0.991665803966669
0.995936567105938
0.999490030900956
1
1.00416709801667
1.00762486007387
1.01036610904495
1.0150427830316
1.01788769712528
1.02581558918206
1.02876298901103
1.02916968611666
1.02916968611666
1.03333678413332
1.03750388214999
1.03750388214999
1.04583807818332
1.05346451077345
1.05681900083723
1.07084066628331
1.08019637303122
1.09594770576403
1.10804269583758
1.12359662735542
1.14056687201788
1.15682896010801
1.17949817572975
1.19952105786007
1.21811651842848
1.23854570453532
1.25187032182649
1.26315270394711
1.27919556711657
1.28336266513324
1.27603887139698
1.26261019585404
1.23882651968353
1.20254154946306
1.15902652159885
1.11330321695542
1.06940292256225
1.03239908048112
0.996114110260802
0.975997492037868
0.960141707924326
0.947140373805281
0.937493529750021
0.92915933371669
0.927523795651513
0.924992235700025
0.920002207571182
0.920408511547621
0.916668361825874
0.921221119500621
0.92082513768336
0.92082513768336
0.916658039666695
0.92082513768336
0.92082513768336
0.92365894335962
0.924992235700025
0.92082513768336
0.92082513768336
0.916658039666695
0.920126910141207
0.92082513768336
0.923481400204874
0.924992235700025
0.927315679148176
0.924992235700025
0.916658039666695
0.913115684289002
0.920606699020844
0.916658039666695
0.920230968392878
0.916658039666695
0.916658039666695
0.916658039666695
0.918605752486877
0.916658039666695
0.916658039666695
0.915929238776051
0.917303033495063
0.929075526654317
0.919844915605732
0.921721552698733
0.922127856675174
0.924992235700025
0.927107562644839
0.92915933371669
0.922064300802211
0.92082513768336
0.92082513768336
0.920804886494065
0.92082513768336
0.917450396430399
0.92082513768336
0.9182630043834
0.916658039666695
0.92082513768336
0.918001261037214
0.92082513768336
0.913021555067549
0.924867926259065
0.91694003420218
0.92082513768336
0.92082513768336
0.923491329234989
0.922732348124892
0.92082513768336
0.924992235700025
0.928118358071062
0.925626907369112
0.916658039666695
0.916658039666695
0.92082513768336
0.918844049209505
0.922221985896728
0.923189083510165
0.92915933371669
0.922376475557142
0.92915933371669
0.92082513768336
0.924659809755727
0.91256481968229
0.924992235700025
0.916658039666695
0.916658039666695
0.92082513768336
0.912490941650029
0.92082513768336
0.924992235700025
0.924992235700025
0.921261621879327
0.92915933371669
0.92915933371669
0.920042709949769
0.913679673360061
0.924992235700025
0.918659379329726
0.92082513768336
0.919471987282726
0.923098542851873
0.920284595235725
0.916658039666695
0.916658039666695
0.916658039666695
0.92082513768336
0.922316115118282
0.92082513768336
0.924992235700025
0.930616542368917
0.924992235700025
0.924992235700025
0.916658039666695
0.920657130429545
0.916658039666695
0.917638654873508
0.926379154883279
0.922618360843173
0.916658039666695
0.918219306570593
0.92082513768336
0.9257408946509
0.92082513768336
0.924992235700025
0.924992235700025
0.924992235700025
0.922107998614946
0.922514302591503
0.924992235700025
0.924992235700025
0.930418354895772
0.936640812547499
0.937493529750021
0.949954714550495
0.945461531056432
0.945827725783352
0.940481825086767
0.944242619126877
0.928975056965857
0.92259452109055
0.924992235700025
0.931072884625071
0.941110156288937
0.933614766735736
0.941922764241945
0.937493529750021
0.933326431733356
0.926473284104832
0.933326431733356
0.933326431733356
0.933326431733356
0.934387265439214
0.937493529750021
0.945827725783352
0.945827725783352
0.95359753961654
0.949994823800017
0.949994823800017
0.945227216026081
0.94321393128599
1.0120230776865
1.12998502581286
1.42053355684412
1.79568405725385
1.92547389950392
1.2781298243372
0.940591538350614
0.873714127598568
0.850793097660657
0.858314685741106
0.897539878663854
0.957968772444267
0.984194254165975
0.991665803966669
0.991665803966669
0.999643734303195
0.999237430326636
1.00299822436686
1.00833419603333
1.01666839206666
1.02261480252063
1.01666839206666
1.02500258809999
1.02500258809999
1.02098958661463
1.02500258809999
1.02916968611666
1.02916968611666
1.03186566475863
1.03104710946785
1.03562051146101
1.04167098016665
1.04071617035791
1.05417227421665
1.05833937223331
1.06652541907306
1.07028621311328
1.07917486231664
1.08750905834997
1.10240408531705
1.11648650433124
1.13076116348071
1.15119034958759
1.16822095468877
1.18788162378458
1.19997661385802
1.2204057999649
1.236667888055
1.25709707416189
1.26752275738741
1.28337854150119
1.29169686116657
1.30291927597726
1.29499138392048
1.27872929583026
1.25395310977757
1.21772810686666
1.17386158125627
1.12964871897871
1.08803770612205
1.04539009244074
1.00892281111516
0.990282866475692
0.969853680368923
0.961925788312033
0.945663700221931
0.941418349351659
0.933975014124936
0.937493529750021
0.936032339405441
0.928727224342173
0.92915933371669
0.933326431733356
0.937493529750021
0.933326431733356
0.933058347920267
0.933188211569885
0.937493529750021
0.93654270163355
0.933326431733356
0.930922769786162
0.933326431733356
0.930750387710884
0.930344083734447
0.933326431733356
0.937493529750021
0.937527691661823
0.941660627766686
0.937493529750021
0.932073357892112
0.927499955898888
0.92915933371669
0.92915933371669
0.930448141986112
0.93244392744049
0.92915933371669
0.933326431733356
0.933326431733356
0.936750818136887
0.932177416143781
0.923935776815629
0.924992235700025
0.924992235700025
0.926385102221117
0.933326431733356
0.932746173165262
0.928985379125156
0.92915933371669
0.925630889061491
0.930204291054627
0.932061856345623
0.933326431733356
0.933326431733356
0.93482335650604
0.935312288157619
0.933326431733356
0.933604444576558
0.937493529750021
0.941126032656889
0.931041131889404
0.944480522720554
0.944074218743995
0.939653340765817
0.941660627766686
0.942855306814555
0.941660627766686
0.93711145865515
0.933326431733356
0.937493529750021
0.934163272568044
0.93873667456115
0.934975880521043
0.935437776985893
0.939198571025999
0.941660627766686
0.942553061089664
0.941660627766686
0.937493529750021
0.941334149160225
0.944362160617311
0.940521541207227
0.939038920286039
0.937493529750021
0.937493529750021
0.934729227284562
0.937493529750021
0.937493529750021
0.941660627766686
0.941438207411887
0.937493529750021
0.942695656074506
0.945827725783352
0.941660627766686
0.937493529750021
0.937493529750021
0.937493529750021
0.948606332100466
0.937781471623336
0.933444793836598
0.941660627766686
0.94396578567087
0.945827725783352
0.941660627766686
0.94367784379767
0.941660627766686
0.944623117705368
0.945827725783352
0.949602823675034
0.954147617965106
0.949574215972004
0.95333501001211
0.948761608019003
0.956689500075775
0.952116098082669
0.956614049527255
0.957020353503696
0.957426657480255
0.95098694055332
0.958329019833347
0.954161921816682
0.959051873386252
0.965534058337333
0.955697383322586
0.962496117850013
0.960148048391108
0.968075940447998
0.974997411900008
0.971430430511663
0.970830313883343
0.966663215866678
0.970211518582107
0.951019923077723
0.954161921816682
0.956982996157825
0.958329019833347
0.966663215866678
0.966663215866678
0.961791942970123
0.958329019833347
0.958329019833347
0.946342462832919
0.954161921816682
0.949994823800017
0.94826117482089
0.949994823800017
0.958329019833347
0.96371065495811
0.962496117850013
0.966261286711579
0.962496117850013
0.962906796647914
0.955795887365599
0.947548250298218
1.01177961988429
1.12151300274536
1.40135621478953
1.78852822037032
1.94538967915318
1.33345784773908
0.957132818670849
0.88301463498714
0.850697395922842
0.871629374002349
0.909030377287743
0.965338229638853
0.99766185957121
1
1
1.00833419603333
1.01666839206666
1.02083549008333
1.02439372182887
1.03232161388573
1.03333678413332
1.03699234053455
1.03973796432711
1.04583807818332
1.04167098016665
1.04167098016665
1.04614587811686
1.050103680243
1.0546770822361
1.05833937223331
1.07084066628331
1.0691169463343
1.07704483839119
1.08080563243129
1.08750905834997
1.09167615636664
1.10001035239997
1.10835010264195
1.11667874446663
1.12837298477228
1.13925461712505
1.15511040123859
1.16882505300949
1.18682196946592
1.20968342522314
1.23103483174323
1.24323943427723
1.27108059600389
1.28723307163378
1.30279216423121
1.31975724781411
1.32768513987088
1.32920074331656
1.32552297008057
1.31943396464168
1.29695222120493
1.26004727629571
1.21583441401863
1.17142891847664
1.12324159144733
1.08635768398574
1.05840690979868
1.02863828644099
1.014725447197
1.00263045712352
0.994702565066676
0.991665803966669
0.987498705950004
0.99175437897957
0.991665803966669
0.983331607933339
0.98463909487568
0.980878300835572
0.979164509916674
0.979164509916674
0.979164509916674
0.974997411900008
0.970830313883343
0.970830313883343
0.970830313883343
0.978367385202442
0.983331607933339
0.977554777249443
0.979164509916674
0.981586850536902
0.979164509916674
0.987498705950004
0.979164509916674
0.987379164459568
0.983044845447326
0.983331607933339
0.987498705950004
0.989004380365566
0.981419629541336
0.985180423581444
0.983331607933339
0.983331607933339
0.982701704214675
0.983331607933339
0.979164509916674
0.970830313883343
0.974997411900008
0.97776289375278
0.979164509916674
0.977211636016902
0.976543981823266
0.974997411900008
0.982597645963104
0.979164509916674
0.983331607933339
0.979164509916674
0.979164509916674
0.983331607933339
0.980868371805458
0.981274675781899
0.980815138091556
0.979164509916674
0.979164509916674
0.979164509916674
0.97913909764779
0.978783618209117
0.979164509916674
0.978577910881679
0.98076431355379
0.977003519513565
0.973242725473459
0.972178696333453
0.970830313883343
0.970830313883343
0.975126882420561
0.971383980795136
0.974314274467561
0.970830313883343
0.972326059268791
0.974997411900008
0.966213607206451
0.970830313883343
0.970830313883343
0.97435757915123
0.978930981144455
0.983158832729112
0.979743589097455
0.979164509916674
0.973605724766231
0.977366518806404
0.966663215866678
0.969273814929971
0.966663215866678
0.967407106867027
0.966663215866678
0.966663215866678
0.962496117850013
0.969948988977675
0.969542685001234
0.970830313883343
0.966663215866678
0.966663215866678
0.974997411900008
0.979164509916674
0.974997411900008
0.983296266634343
0.974997411900008
0.975774678554009
0.978548123791331
0.982344259130674
0.979164509916674
0.985734090493339
0.990307492486445
0.980116517420338
0.982240200878891
0.974997411900008
0.975264316325788
0.982658399531007
0.979164509916674
0.977678693561342
0.983331607933339
0.983331607933339
0.982089249380458
0.985386574439338
0.986848944171212
0.987498705950004
0.987335859775895
0.983900758084002
0.994857447856203
0.997214660086998
1
1.00197273196
1
1.00300697400966
0.990911983936206
0.983331607933339
0.983331607933339
0.983796699832334
0.995832901983335
0.995832901983335
0.995033811623779
0.991665803966669
0.98500209416845
0.977900327658004
0.980022388198784
0.979164509916674
0.975087952558237
0.991304770319343
0.983331607933339
0.984505249533666
0.994252956406449
0.998013750446673
0.995832901983335
0.995895278468986
0.998076126932442
0.978053244801998
1.009230167518
1.08987732859698
1.24642104833333
1.63453694682768
1.94679851276155
1.73382908258265
1.13720702935163
0.924492639161776
0.89989276647491
0.890995760757697
0.912997715314923
0.965592795857918
1.00721575379223
1.02083549008333
1.02779785704311
1.02500258809999
1.03115234710677
1.03074604313026
1.03750388214999
1.04583807818332
1.04583807818332
1.05000517619998
1.05788420936443
1.06164500340454
1.0612386994281
1.06250647024998
1.06667356826664
1.06916025101808
1.07500776429997
1.0758755716122
1.07963636565242
1.09167615636664
1.0958432543833
1.09508584578953
1.10001035239997
1.10677453188652
1.11427351000294
1.12084584248329
1.13055820805708
1.14584843058328
1.1505810901874
1.15850898224417
1.17477107033439
1.19871400411573
1.21146234453135
1.23189153063815
1.25044845447339
1.27235986837226
1.28901199094202
1.30527407903213
1.32153616712225
1.32556027702501
1.34170203736655
1.34170203736655
1.33849053541688
1.31669944926656
1.27616598314302
1.24404811093923
1.19784265864174
1.15362979636436
1.10679719225191
1.06593882003819
1.04174883989131
1.0175588597442
1.00833419603333
1
0.984995753701665
0.97290076362811
0.974997411900008
0.970830313883343
0.973241939215331
0.974525979534111
0.970830313883343
0.974656236312906
0.970830313883343
0.967816999406777
0.964056205366671
0.962496117850013
0.968457618413685
0.970830313883343
0.969848519289336
0.974997411900008
0.966832402507685
0.974997411900008
0.966663215866678
0.966663215866678
0.966663215866678
0.964800882625194
0.966663215866678
