1.00398442801746
1
1
1
1
1
1
0.998735139496908
0.996015571982538
1
0.992130475533439
1
1
0.996015571982538
0.998545292988723
1
1.02390656810477
1.02925518819369
1.0318754241397
1.02331939532314
1.01992214008731
1.02371672159659
1.01535935591675
1.01292014985039
1.01059790860947
1.01195328405239
1.00398442801746
1.00650533239511
1
0.999313495650003
0.996015571982538
1
0.996015571982538
0.993766212424363
0.997271615857092
1.002339874498
1
1.00242157280928
1.00914320159819
1.0031985920991
1
0.984071104558691
1.03680673604365
1.12058787260726
1.31091528613568
1.70206457091396
1.97096849361735
1.64833912837821
1.10793984556554
0.912786341686412
0.886946041985631
0.884884180281208
0.908077794150366
0.980717932465562
1.01593771206985
1.0318754241397
1.04199430816443
1.05179756422701
1.05179756422701
1.04879763526463
1.05976642026193
1.06354336851413
1.05596302212411
1.06830481582141
1.07171970431431
1.07834200153486
1.08193791990741
1.07358055422758
1.08220064809834
1.0836729883667
1.08436830934524
1.09562627241909
1.10351343014273
1.10757955647147
1.10984654928673
1.11430118526038
1.1218815316504
1.12946187804041
1.13547055259371
1.15140826466355
1.15937712069848
1.16775211963539
1.17935216055702
1.2024640761149
1.21364034087746
1.23960642203222
1.2559150104899
1.28096947427233
1.29818968010234
1.32402116317459
1.32761708154714
1.34316628397208
1.35871548639702
1.36285449440851
1.3665673776065
1.3556626576634
1.3375661009752
1.29633999547205
1.25987533727618
1.21101363695735
1.16535934536616
1.12568727844264
1.09120925161402
1.06790748954796
1.04837385910556
1.0318754241397
1.01593771206985
1.01593771206985
1.00609918949312
1.01047212715549
1.00289178076548
1
0.999684372037835
0.999927118317255
0.996015571982538
1
1
0.996015571982538
0.996015571982538
0.992031143965076
0.992031143965076
0.992834613140514
0.992031143965076
0.992004694079459
0.987684656188323
0.992031143965076
0.993170223014188
0.99754316067656
0.994099473643606
0.99832017996638
0.992031143965076
0.996015571982538
0.995501280883648
0.992156925419056
0.996015571982538
0.992031143965076
0.996015571982538
0.994587314856878
0.993847910735646
0.994236420380556
0.993421785922148
0.985064420242314
0.991417521297823
0.991806030942733
0.99585217535997
0.992031143965076
0.992031143965076
0.989375641504911
0.984062287930152
0.988046715947614
0.986556742422179
0.984062287930152
0.988046715947614
0.988046715947614
0.984126352984357
0.980983009310922
0.980918944256716
0.988046715947614
0.984810508679924
0.986068901208908
0.984062287930152
0.98007785991269
0.984062287930152
0.984062287930152
0.984027021415995
0.984062287930152
0.991289391189413
0.992031143965076
0.989565488013097
0.989953997658007
0.990342507302917
0.992031143965076
0.992031143965076
0.992031143965076
0.992031143965076
0.992031143965076
0.989331558362216
0.991000213112865
0.992031143965076
0.984062287930152
0.988046715947614
0.988046715947614
0.988046715947614
0.988669155243406
0.984296217581033
0.984062287930152
0.977179611173104
0.984062287930152
0.984062287930152
0.990322525391408
0.989934015746498
0.985561078084126
0.988046715947614
0.994572030254231
0.988379977166858
0.988046715947614
0.976980948036379
0.984894555645638
0.986825938587218
0.992031143965076
0.992031143965076
0.99043302224274
0.986837103870187
0.987225613515098
0.992896329540289
0.980121943055386
0.9877022894454
0.984062287930152
0.990909698173043
0.996980089126112
0.9821638228483
0.988046715947614
0.997382112708423
0.992031143965076
0.991499219609107
0.995585327849362
0.995280287180983
0.984062287930152
0.988046715947614
0.998589376131419
1.01413857855636
1.02210978324571
1.0145294368557
1.01297304962163
1
1.00748336347608
0.999562709903533
0.988046715947614
0.988046715947614
0.989358008247833
0.977793233840357
0.980270055075307
0.977062646347662
0.970362770135511
0.96340956035015
0.968466653708089
0.968171007657431
0.97167406243573
0.968124575860304
0.97089704314591
0.970508533501
0.972109003877766
0.973715942228643
0.973327432583733
0.969619246694599
0.950850892269873
1.01620221092603
1.11550552203977
1.37925540516895
1.79426952356374
1.98218941951179
1.46043440693971
1.02791917997541
0.893769350997332
0.869443126053174
0.886073810447127
0.913103740313831
0.97491204036867
0.996015571982538
1.00992668886212
1.0091496695723
1.01016296716743
1.00579002950506
1.01452062022716
1.02390656810477
1.02056221264018
1.02390656810477
1.03173847740275
1.0353343957753
1.04200077613854
1.04122375684872
1.03984428017462
1.04989263117104
1.05331398763806
1.05006896374183
1.05578199224447
1.05613288672079
1.05980403543052
1.07570413233178
1.07334897323113
1.0836729883667
1.08526464211493
1.10955971986461
1.11317973946835
1.12474451387582
1.1371480239729
1.14832428873546
1.16746940953295
1.18328368880325
1.20575965112793
1.22600858446038
1.24305010906518
1.26507584534518
1.28687881725726
1.30414310622998
1.31078538536203
1.32095247184915
1.32289971738255
1.33070752544934
1.31998618404032
1.29585215425878
1.26057535556358
1.22008218620755
1.17204158832123
1.13517725519748
1.08263558954038
1.04985089668278
1.02763061658573
1.00835324636016
1
0.989857014744074
0.992031143965076
0.979457769271328
0.97593650324677
0.976093431895228
0.975519195061811
0.973848769645912
0.967405153650582
0.979962665752493
0.964557456027802
0.968124575860304
0.968124575860304
0.968124575860304
0.96611149460744
0.972109003877766
0.978841797949646
0.976093431895228
0.98268515991048
0.944218007755533
0.963186217993052
0.959449233563876
0.952186863790457
0.960155719825381
0.968124575860304
0.966400672683987
0.964140147842843
0.956171291807919
0.956729666049506
0.956341156404595
0.956171291807919
0.959548565132236
0.948200665107741
0.958939639773844
0.954837668941765
0.952186863790457
0.953621588890226
0.951140648335598
0.955513585997969
0.94475640008561
0.948441062732738
0.951679040665675
0.949098768542687
0.956171291807919
0.944218007755533
0.942156146051113
0.941767636406203
0.940233579738071
0.93700618909892
0.939865052004669
0.932264723703147
0.938599613512395
0.93545215051928
0.939048068891831
0.934675131229461
0.936249151720609
0.940233579738071
0.92952517427727
0.948202435772995
0.947734576471231
0.944297357412387
0.948511595761051
0.947504766140028
0.940233579738071
0.936249151720609
0.944218007755533
0.937981871525466
0.936249151720609
0.940233579738071
0.939666388867945
0.948202435772995
0.94463766459492
0.947604097708391
0.941220427447586
0.938858222383646
0.941997446737406
0.940233579738071
0.953630405518766
0.956171291807919
0.944218007755533
0.944218007755533
0.944328504606864
0.944218007755533
0.941121095879223
0.940233579738071
0.943562650600016
0.944218007755533
0.940233579738071
0.936249151720609
0.940999433744923
0.936249151720609
0.940233579738071
0.943818332827654
0.947414251200205
0.948202435772995
0.950621659927847
0.940233579738071
0.940233579738071
0.936249151720609
0.940233579738071
0.936725827650913
0.940233579738071
0.940233579738071
0.947513582768568
0.947125073123658
0.945270691184501
0.954316909868761
0.952186863790457
0.950908489349965
0.969089093003882
0.976669439393895
0.98007785991269
0.976294443686382
0.972109003877766
0.972109003877766
0.976093431895228
0.968124575860304
0.964140147842843
0.964140147842843
0.952186863790457
0.948202435772995
0.948202435772995
0.944319687978324
0.951696673922755
0.947732805805981
0.937516360878131
0.9425622889531
0.946158207325652
0.949754125698203
0.945381188035833
0.956945962443311
0.959769558834898
0.952186863790457
0.948593294072334
0.933823459591646
0.955965004718728
1.01612463193442
1.13224319865226
1.44991071947986
1.78607909583698
1.77670647840826
1.1597790708853
0.911760686132233
0.868805402154732
0.848591735336446
0.853354953308977
0.902143193955887
0.952773458582911
0.9738593569397
0.98668487253059
0.989993383491843
0.992615968092281
1
1.00398442801746
1.00398442801746
1.01593771206985
1.02127986418465
1.01817590634506
1.01992214008731
1.01886006204062
1.02681833078176
1.0285751518178
1.03645114425847
1.03604557934566
1.05784092730528
1.05578199224447
1.06249245575041
1.05179756422701
1.06968429249551
1.07484071742181
1.0836729883667
1.0908583571377
1.0912468667826
1.0956327403932
1.11838671551146
1.12994502194483
1.14343940862863
1.16181397811041
1.18145987606939
1.19689681097775
1.20701981432216
1.22799521582762
1.2480231554574
1.27104690472988
1.28261167913736
1.29019202552737
1.30574122795231
1.31332157434232
1.30496420866249
1.29707293161917
1.26819978509628
1.23311695222895
1.18031548502453
1.1390447183895
1.10034421457286
1.0580695449604
1.02981179177002
1.00803115042388
0.995505978192508
0.984329713429944
0.973578995491693
0.967043093891288
0.968124575860304
0.959851257146185
0.948286482738709
0.952186863790457
0.959294653569848
0.957656568024495
0.960155719825381
0.956171291807919
0.96172504300767
0.951006050253078
0.951394559897988
0.948606230020553
0.956186576410567
0.95654451685018
0.952186863790457
0.955021047475839
0.956171291807919
0.95822845620348
0.956171291807919
0.952186863790457
0.956171291807919
0.952186863790457
0.952301479961468
0.955897398334019
0.960155719825381
0.961206632589098
0.949641858181623
0.950358931736918
0.955722836428482
0.952186863790457
0.952186863790457
0.95278932117474
0.951972916051083
0.955996729902382
0.956171291807919
0.95409002618117
0.952186863790457
0.953915464275632
0.954303973920543
0.958676911582915
0.948202435772995
0.94491979670818
0.959215881902171
0.952186863790457
0.955707551825835
0.956171291807919
0.952186863790457
0.951460973606621
0.95420464235218
0.954593151997091
0.947012805607078
0.952186863790457
0.953012085542654
0.952186863790457
0.955806883394197
0.945723843872795
0.952768146587161
0.950656926442007
0.958089738801279
0.95847824844619
0.950897902056176
0.956171291807919
0.960155719825381
0.956171291807919
0.956436368653277
0.956171291807919
0.964140147842843
0.965570753622932
0.964140147842843
0.957948094755472
0.949590729075637
0.956171291807919
0.960155719825381
0.956394056175833
0.956337037084915
0.960155719825381
0.957114056374735
0.953518138002183
0.962420363986206
0.953830839320745
0.960155719825381
0.963041032616747
0.960866325406565
0.964462243779116
0.960222133534014
0.960155719825381
0.952186863790457
0.956171291807919
0.960899243266292
0.964106651993933
0.966537619420937
0.966926129065848
0.967314638710758
0.971687576373131
0.972141921737495
0.976093431895228
0.98331818650006
0.986914104872612
0.98254116721024
0.992196311252893
1.00168628800773
1
1
0.996015571982538
1.00385217858937
1.00372816780064
0.996015571982538
0.985980156934335
0.985484077081702
0.984426118354694
0.982276668354061
0.98007785991269
0.971100403591495
0.975473341253867
0.968356156856755
0.968124575860304
0.968124575860304
0.975159483956951
0.98007785991269
0.973819971105863
0.978192908768236
0.972109003877766
0.974985500040593
0.983342865720428
0.975431606765601
0.999539223359225
1.0646125292218
1.22404258638925
1.58795334225496
1.87858966714436
1.64796922448015
1.09796488084559
0.907876167672325
0.866057614089496
0.860545019388832
0.880634097429204
0.938499703954846
0.985840861542957
1.005721267142
1.01044097996101
1.01802132635103
1.02051635883223
1.01992214008731
1.02574273879767
1.042769556789
1.04767207015291
1.04382870819208
1.04382870819208
1.04883759908764
1.05578199224447
1.05578199224447
1.05976642026193
1.06773527629685
1.06375084827939
1.06836418356675
1.06821607154684
1.08352487634678
1.08313636670187
1.09868556912681
1.09961070043655
1.10815968328982
1.11345775226193
1.12900695468687
1.13148612457624
1.14596735896956
1.15971684989183
1.17133040475086
1.19037796464524
1.20719025690802
1.21792923157412
1.23586004298533
1.26098092047638
1.2685612668664
1.28411046929133
1.29883210130965
1.30724001810629
1.31875424139696
1.31875424139696
1.31078538536203
1.29309320091057
1.26349828352353
1.22252666757193
1.17874851049666
1.12622447809665
1.08580361243418
1.06267406361923
1.03969439748945
1.02016076704705
1.00062713660465
0.989062362197177
0.981482015807163
0.981870525452072
0.98225903509698
0.976093431895228
0.968124575860304
0.972109003877766
0.975844217641697
0.972109003877766
0.975565626858938
0.975177117214028
0.98007785991269
0.973802337848787
0.977996016296761
0.972109003877766
0.98007785991269
0.984062287930152
0.987698170125719
0.988006752124599
0.988046715947614
0.988046715947614
0.981283352670437
0.986452713544957
0.982060371960257
0.988046715947614
0.992031143965076
0.988046715947614
0.9871509611671
0.987987348202267
0.98771757404805
0.984062287930152
0.981184021102074
0.982567617095858
0.977976612374433
0.982349550036803
0.976093431895228
0.98101357851622
0.984062287930152
0.98007785991269
0.984062287930152
0.980696179888802
0.976093431895228
0.977488771161161
0.98007785991269
0.98007785991269
0.973532563694567
0.976093431895228
0.979431319385709
0.972109003877766
0.972109003877766
0.968124575860304
0.972109003877766
0.972109003877766
0.974408914552748
0.976093431895228
0.978554968527529
0.976093431895228
0.976093431895228
0.975736069444793
0.976124579089703
0.968124575860304
0.968932742344601
0.972109003877766
0.976093431895228
0.984062287930152
0.989668938901138
0.972109003877766
0.976938635558934
0.979621165893894
0.98007785991269
0.976093431895228
0.984062287930152
0.984062287930152
0.984062287930152
0.988046715947614
0.98007785991269
0.984062287930152
0.976093431895228
0.976093431895228
0.991863628022826
0.987825722244953
0.987437212600043
0.987048702955132
0.988046715947614
0.986271683665312
0.988046715947614
0.990598767519737
0.983018421129723
0.988046715947614
0.988046715947614
0.988046715947614
0.984062287930152
0.988046715947614
0.985349478999183
0.985737988644093
0.98420628063039
0.989578423961316
0.997158770351329
0.992031143965076
0.996015571982538
0.992031143965076
0.992031143965076
0.990432444253561
0.988046715947614
0.989623085093193
0.990066265174587
0.989677755529678
0.990788614027922
0.995161551690295
0.996481082629871
1.00421543102474
1.01992214008731
1.02719097783484
1.01992214008731
1.01992214008731
1.01805659286518
1.01992214008731
1.01593771206985
1.01004658033117
1
0.996191904553327
1
1
0.997004768346479
0.988046715947614
0.989812931601377
0.984387310510037
0.985503481004032
0.988046715947614
0.992031143965076
0.992306808104225
0.992143989470834
0.998997289698663
0.996015571982538
0.99872162555951
0.989713600033015
0.977896106739219
1.04265909663538
1.13964547850397
1.35988763009672
1.76641621600556
1.99196040909924
1.49987644334555
1.04284760367659
0.902747385307706
0.865247676939946
0.878583401007758
0.914917580440786
0.978365736706226
1.00883169295571
1.01641203934572
1.02000795771827
1.03555716014321
1.03118422248084
1.03478014085339
1.04928135715822
1.05392526165088
1.05578199224447
1.06111709839598
1.06471301676853
1.06773527629685
1.07171970431431
1.07570413233178
1.07570413233178
1.07668451206718
1.08093520960607
1.08590001735894
1.09164184440162
1.09562627241909
1.10067220049405
1.10825254688407
1.11184846525662
1.11166801336616
1.12302473001919
1.13370845625963
1.14615427883414
1.1520765577673
1.16928382764909
1.18483303007403
1.20038223249897
1.21991586294137
1.23584887770236
1.25897842651731
1.27453232625111
1.28851809547869
1.30563073110098
1.31875424139696
1.33478189041745
1.33634062630595
1.33343179027257
1.3289642183507
1.30631781344016
1.2707518366684
1.23256620193982
1.18669561395483
1.14665209265431
1.11195776943188
1.07327901819199
1.04655355100449
1.02390656810477
1.01798016985194
1.00340195254469
1
1
1
0.989018279054479
0.985422360681925
0.989795298344297
0.990183807989208
0.984062287930152
0.982991971244105
0.988046715947614
0.991737846568851
0.984062287930152
0.988046715947614
0.988046715947614
0.988046715947614
0.990381893136755
0.988046715947614
0.984062287930152
0.985231936184563
0.988046715947614
0.988046715947614
0.984062287930152
0.987662325622386
0.988046715947614
0.992031143965076
0.993581063225035
0.990092715060209
0.99368863343276
0.990762164142303
0.988046715947614
0.984554248463104
0.984062287930152
0.980362918669559
0.985409424733704
0.98007785991269
0.984062287930152
0.985901385266659
0.986289894911568
0.986678404556478
0.986087112455164
0.988046715947614
0.988046715947614
0.988232443136121
0.987472479114198
0.983099541451828
0.98007785991269
0.98007785991269
0.978221707308282
0.978610216953192
0.982983154615565
0.975402808225552
0.976395545919994
0.976093431895228
0.976093431895228
0.979214445002727
0.98007785991269
0.98640628174783
0.984062287930152
0.984062287930152
0.984062287930152
0.984062287930152
0.983660842337022
0.98007785991269
0.988046715947614
0.983298204588552
0.984062287930152
0.981618962544108
0.984062287930152
0.977759737991452
0.98007785991269
0.976093431895228
0.983561510768659
0.98395002041357
0.979801617784362
0.984062287930152
0.984062287930152
0.984062287930152
0.984062287930152
0.978312222248107
0.981454987932364
0.977082050269992
0.976693540625082
0.98007785991269
0.98007785991269
0.984062287930152
0.98007785991269
0.988046715947614
0.984062287930152
0.984062287930152
0.984062287930152
0.98007785991269
0.976792872193444
0.979766929259385
0.98007785991269
0.988046715947614
0.984062287930152
0.98007785991269
0.981709477483934
0.984062287930152
0.98007785991269
0.984062287930152
0.983263516063572
0.98048812213436
0.98007785991269
0.983695530862
0.988046715947614
0.98291851157218
0.985594573933034
0.988046715947614
0.986371593222852
0.985473489787911
0.982266081060269
0.978131807055355
0.976214516040349
0.98007785991269
0.984062287930152
0.984062287930152
0.988361151233714
0.98007785991269
0.982287833637028
0.985448232578366
0.981075294915994
0.984062287930152
0.984062287930152
0.980245953844118
0.976650035471566
0.981022973133938
0.986713093081456
0.986324583436546
0.996015571982538
1.00796885603492
1.01882537351564
1.01195328405239
1.01992214008731
1.01600647443291
1.00751158402695
1
1
0.997638372925244
0.984062287930152
0.994430964197599
0.988046715947614
0.983254699435034
0.98007785991269
0.964109578637543
0.971751063438155
0.964886597927364
0.968124575860304
0.976093431895228
0.972109003877766
0.972109003877766
0.970813574169374
0.972109003877766
0.972109003877766
0.97622333266889
0.976610649637726
0.957465528840238
0.992750602872514
1.06032660186648
1.22707843325037
1.62159978945035
1.94829809756878
1.7803392137738
1.19628708744384
0.918936045598618
0.877279117973113
0.877030518406477
0.902501134395498
0.95486650417952
1.00055779625241
1.01007068156236
1.01444361922473
1.01305886725259
1.0213562871979
1.02423513201516
1.0318754241397
1.03232387951913
1.0469761711852
1.04382870819208
1.04781313620954
1.05377949828539
1.05578199224447
1.06375084827939
1.05976642026193
1.0681631717756
1.07171970431431
1.07535500852071
1.07644176578776
1.07968856034924
1.08614276363836
1.09372311002837
1.10130345641839
1.10757955647147
1.11064824779691
1.12006006757097
1.13148612457624
1.14293982414321
1.15076996277593
1.16631916520087
1.18186836762581
1.20358259526332
1.22272771606081
1.24843811498793
1.26797174543033
1.28414750647075
1.30329262726824
1.31063492468769
1.32618412711262
1.3377489015201
1.34266080950173
1.34038088073825
1.31895583117729
1.2998107103798
1.26361347768372
1.22022440824253
1.17031826313408
1.12765508387673
1.09296076065431
1.065407145071
1.04106093821534
1.02313247545856
1.00797178267853
1
0.997572537205788
0.984062287930152
0.987610003840325
0.987998513485235
0.984062287930152
0.980806676740133
0.98007785991269
0.988046715947614
0.986152370185441
0.982360715319772
0.988046715947614
0.98007785991269
0.983526244254503
0.984062287930152
0.987805740333446
0.976093431895228
0.984062287930152
0.992031143965076
0.97828284571888
0.977894336073969
0.98007785991269
0.984062287930152
0.987411340703602
0.984062287930152
0.984062287930152
0.979547706221974
0.975174768559602
0.976093431895228
0.973804686503214
0.977993667642332
0.981589586014883
0.985185504387437
0.98007785991269
0.98007785991269
0.984062287930152
0.976524254017582
0.977732095429757
0.98007785991269
0.98007785991269
0.976093431895228
0.976093431895228
0.972109003877766
0.975259393514492
0.972109003877766
0.968124575860304
0.968124575860304
0.96558014824065
0.968124575860304
0.962643128354118
0.964140147842843
0.962429758603923
0.969465244689749
0.968124575860304
0.964140147842843
0.968124575860304
0.968124575860304
0.968124575860304
0.972109003877766
0.968124575860304
0.974307234329959
0.969934296667586
0.969266581553024
0.971076302360306
0.970820620132661
0.968124575860304
0.968124575860304
0.964140147842843
0.968124575860304
0.969422932212303
0.968124575860304
0.966215523484662
0.970588461147035
0.970976970791945
0.971365480436856
0.96883460345231
0.96819156755812
0.971686998383949
0.976093431895228
0.974507053445038
0.969712110288851
0.970132959804309
0.972109003877766
0.97334036853195
0.975250576885956
0.975639086530863
0.972109003877766
0.96844724978576
0.976093431895228
0.977193125110502
0.982574085069968
0.980308862919962
0.977812637762685
0.981400895485057
0.976093431895228
0.979524182979964
0.98007785991269
0.980301202269782
0.98007785991269
0.976093431895228
0.974704560603408
0.972109003877766
0.976093431895228
0.974663404104319
0.976093431895228
0.972762012378855
0.975564434182873
0.976093431895228
0.976093431895228
0.975192401816679
0.977382971618688
0.977771481263597
0.972109003877766
0.976093431895228
0.969265425574666
0.976093431895228
0.975729601470688
0.972084324657396
0.972522192743044
0.972910702387954
0.973299212032864
0.973687721677775
0.974076231322683
0.973737694805401
0.972109003877766
0.975241760257415
0.968124575860304
0.972109003877766
0.971795146580852
0.991328777023251
0.992031143965076
0.997494958214184
0.997883467859092
0.992031143965076
0.981383262227979
0.961106723031558
0.972109003877766
0.976093431895228
0.968553627317413
0.968727611233766
0.976093431895228
0.973489058541048
0.965908712151035
0.964140147842843
0.956171291807919
0.957221626582459
0.952186863790457
0.960155719825381
0.952302057950649
0.956171291807919
0.962355720942824
0.964140147842843
0.962470915103013
0.964140147842843
0.968124575860304
0.961840815157038
0.940233579738071
0.985552876142476
1.05167066349237
1.24570283167254
1.66714539155315
1.94296653274776
1.64247523552633
1.11439910396639
0.890564254226408
0.850078167531379
0.86226599592154
0.888907994132509
0.944635352638196
0.987436634610859
0.996015571982538
0.998917940041805
1.00251385841436
1.00610977678691
1.00398442801746
1.01728604154947
1.01800250041788
1.02049345027712
1.02789099612223
1.02789099612223
1.03246964288462
1.03585985215716
1.03585985215716
1.03761959983681
1.03984428017462
1.04781313620954
1.05179756422701
1.04915441972588
1.05207969634026
1.06364447074774
1.06674550194373
1.07968856034924
1.08765741638416
1.10293153265913
1.10951505873273
1.11001699187258
1.12467575151276
1.13225609790278
1.14780530032771
1.171309266861
1.19046143362177
1.21039061967237
1.22875167521675
1.23836685543639
1.26305748879428
1.28220260959176
1.29212105981453
1.30767026223946
1.31222777111198
1.31467752777442
1.30709718138441
1.28824828462675
1.262207551124
1.22246787781578
1.17873145522876
1.13247235759886
1.08757040607712
1.0528760828547
1.02615061566719
1
0.988243608419087
0.973279808110533
0.968124575860304
0.962777726436639
0.960155719825381
0.966279588538864
0.961612197501911
0.960155719825381
0.964819606229553
0.963849199101043
0.964140147842843
0.964140147842843
0.959281139632449
0.956171291807919
0.960155719825381
0.956171291807919
0.957727101052812
0.958988420225398
0.956171291807919
0.956171291807919
0.956174833138422
0.956944769767237
0.952962112415026
0.949366194042474
0.949754703687384
0.948202435772995
0.943237013333234
0.94946906694134
0.937127273244044
0.941212803495119
0.940334681971685
0.940520987149367
0.944218007755533
0.940233579738071
0.936249151720609
0.944218007755533
0.936249151720609
0.932264723703147
0.936249151720609
0.940233579738071
0.936249151720609
0.936437227563541
0.93284130919099
0.933229818835901
0.940233579738071
0.938491465315496
0.946071811705509
0.944218007755533
0.943141223095378
0.943529732740283
0.940233579738071
0.944129263480963
0.944218007755533
0.944218007755533
0.944218007755533
0.941876362592284
0.942264872237194
0.941088756008677
0.941409695966588
0.933052330286754
0.935850054781907
0.932275310996939
0.939855657386953
0.936249151720609
0.939078638097131
0.943320482309772
0.940233579738071
0.937913109162399
0.936249151720609
0.933151661855116
0.936747580227667
0.936249151720609
0.940233579738071
0.940233579738071
0.936249151720609
0.937693271438097
0.940233579738071
0.940233579738071
0.936249151720609
0.935262882000278
0.936249151720609
0.936249151720609
0.932443982917541
0.931696954843843
0.930352166694717
0.936249151720609
0.936249151720609
0.93438653114209
0.937285357870855
0.932264723703147
0.932264723703147
0.924604449667099
0.932344651349175
0.932264723703147
0.936249151720609
0.931019267122387
0.942584041529863
0.940233579738071
0.932264723703147
0.935064218863549
0.936249151720609
0.936657065287847
0.932264723703147
0.936249151720609
0.939475964370584
0.928280295685685
0.934714517063301
0.932264723703147
0.936249151720609
0.932264723703147
0.933160478483658
0.93972633460247
0.936249151720609
0.935979377566389
0.940233579738071
0.940233579738071
0.944218007755533
0.950363051056601
0.958383614186685
0.960155719825381
0.957166378156792
0.958942566417454
0.943781873637428
0.932264723703147
0.943100103294009
0.94327054587986
0.934936666744313
0.938509098572577
0.94445956135888
0.934766224158462
0.930075887868675
0.924295867668223
0.912659982243252
0.912413694633333
0.912342583615837
0.921159569958071
0.925807015781244
0.929905445282816
0.932264723703147
0.932264723703147
0.931070974217548
0.942607528074157
0.936249151720609
0.932208282601414
0.923575289480136
0.97783146369583
1.072872407394
1.34503917073928
1.69722984742339
1.82718678695463
1.21394035395755
0.913074868378359
0.852060101589769
0.836893555522518
0.828930552774818
0.877219823623186
0.928112816441142
0.955876260444161
0.969939571965622
0.972109003877766
0.972109003877766
0.98007785991269
0.980693253245192
0.984062287930152
0.995853946025219
0.996015571982538
0.999061354752861
1.00265727312542
1.00570009255442
1.00984910987052
1.0109523444163
1.01704094661563
1.01665243697072
1.01659014258176
1.02795329051119
1.03540904812329
1.04298939451331
1.04382870819208
1.05179756422701
1.05976642026193
1.0661442005378
1.07690669844591
1.08684335991494
1.09562627241909
1.10366920281282
1.11918136805835
1.13000616035542
1.14629534489077
1.16582897533317
1.18345709473043
1.19692738018305
1.22174733632541
1.23997906908531
1.25154384349278
1.26310861790026
1.27094110518741
1.27492553320487
1.27094110518741
1.26182316079877
1.24267804000128
1.2115796351514
1.17229311453148
1.12547625734688
1.07781593046612
1.04312160724369
1.01225890270995
0.985144925877532
0.973038832496366
0.962792396352401
0.949909283681415
0.950297793326321
0.950686302971232
0.945330058929847
0.936249151720609
0.939898547853575
0.936249151720609
0.936691139125933
0.929110792735919
0.936249151720609
0.930657207363093
0.934260749688111
0.932264723703147
0.932264723703147
0.936249151720609
0.936249151720609
0.928417857109529
0.936249151720609
0.933727054666891
0.928280295685685
0.932264723703147
0.936058112536351
0.929979519641635
0.932264723703147
0.933186928369279
0.932798418724368
0.936249151720609
0.940233579738071
0.936249151720609
0.935228808162189
0.944218007755533
0.938046514568849
0.928280295685685
0.932264723703147
0.927258759451191
0.932264723703147
0.93250924064782
0.932552709103623
0.932264723703147
0.936249151720609
0.940233579738071
0.937947183000487
0.932264723703147
0.936249151720609
0.933385591506003
0.944218007755533
0.932608572216182
0.940188918606195
0.933131065256719
0.940233579738071
0.936249151720609
0.9298789953972
0.928290304990296
0.932264723703147
0.929500495056902
0.927448605959377
0.924295867668223
0.928225625249198
0.927946456477261
0.924295867668223
0.92716943718744
0.934749783577456
0.936249151720609
0.930556683118658
0.930945192763568
0.932264723703147
0.932264723703147
0.931956719693449
0.924295867668223
0.931018689133203
0.932264723703147
0.940233579738071
0.934460605500908
0.926472923532834
