0.979505149273163
0.984403465070459
0.982804773766602
0.98360411941853
0.982005428114674
0.989803695579445
0.98360411941853
0.987703089563898
0.991802059709265
0.992303974420956
0.991699817823539
0.991504628769027
0.987703089563898
0.98360411941853
0.9821076700004
0.98360411941853
0.985899914488589
0.987703089563898
0.984607948841911
0.991197903111848
0.987703089563898
0.98360411941853
0.991802059709265
0.991802059709265
0.994590474774073
0.991802059709265
0.993995612893597
0.993307803844337
0.991802059709265
0.991802059709265
1
0.991802059709265
0.98868832955341
0.990909766888539
0.99051009406257
0.989394728036563
0.991802059709265
0.986820091460055
1
0.995901029854633
0.992211027252118
0.991792764992382
0.995510651745552
0.99259211064431
0.992991783470274
0.991802059709265
0.989812990296328
0.982925605086095
0.987703089563898
0.987703089563898
0.991802059709265
0.991802059709265
0.987703089563898
0.988390898613216
0.988790571439181
0.987703089563898
0.985490946945741
0.985416589210723
0.991802059709265
0.981531397553691
0.987703089563898
0.991588281220929
0.995715135517002
0.981261850763965
0.984589359408101
0.987703089563898
0.98360411941853
0.98360411941853
0.98360411941853
0.98360411941853
0.986987396363871
0.987703089563898
0.987703089563898
0.991802059709265
0.986820091460055
0.986169461278155
0.979505149273163
0.981457039818642
0.981122430010809
0.987703089563898
0.988521024649604
0.984022381678267
0.991802059709265
0.991420976317067
0.991802059709265
0.995901029854633
0.993382161579355
0.989682864259952
0.995901029854633
0.98360411941853
0.985444473361372
0.995380525709176
0.98782392088339
0.987981931070369
0.987703089563898
0.991802059709265
0.989180949548262
0.989924526898937
0.993623824218341
1
0.992824478566412
0.992424805740448
0.999776926794781
0.995901029854633
0.99647730230135
0.99687697512732
0.995901029854633
0.995901029854633
0.991802059709265
0.987703089563898
0.990677398966392
0.987703089563898
0.995901029854633
0.995975387589653
0.996375060415622
0.995901029854633
0.993075435922194
0.991802059709265
0.991802059709265
0.986076514109369
0.982377216789971
0.976233408930385
0.988130646540517
0.995928914005282
1
0.994358106852074
0.988874223891141
0.987703089563898
0.983762129605555
0.98943190690413
0.990472915194997
0.980434620961467
0.988232888426238
0.991802059709265
0.999730453210412
0.996570249470185
0.996969922296149
1.00263040487789
0.997769267948077
0.990928356322365
1.04404766330828
1.13534966724938
1.39102873926538
1.77571848161532
1.96668773469125
1.38766405175133
1.00390378109041
0.90435736327473
0.886994832137456
0.895127709410042
0.933886678811808
1.00113395545976
1.03426032643052
1.04098970145367
1.04098970145367
1.04508867159904
1.04508867159904
1.05738558203514
1.05328661188978
1.06558352232588
1.06721939249729
1.07664423541654
1.08197940290735
1.07788043276198
1.07791761162951
1.08607837305272
1.08121723612295
1.09017734319808
1.09271480090713
1.09427631334345
1.10483511172244
1.09837528348882
1.11067219392492
1.11067219392492
1.11477116407029
1.12244860021561
1.13050711975309
1.13830538721786
1.15138305387217
1.16357772242245
1.17173848384575
1.19409227794915
1.20598951555928
1.22608469346016
1.24232256385465
1.26595902888794
1.2934528014276
1.30140907907935
1.30880767371814
1.32850317879304
1.33611555192013
1.33611555192013
1.34431349221086
1.3353719745695
1.32757370710468
1.30753429750506
1.27554188199406
1.22886381380798
1.18662862029198
1.15087184444349
1.11478045878712
1.08443320816442
1.06023906011819
1.04014388221732
1.03234561475255
1.01639588058147
1.00890433877383
1.01380265457113
1.0122969104361
1.00975015801018
1.00409897014537
1
1
1
1
0.996049745324775
1.00409897014537
1.00344833996358
1.00409897014537
1.00819794029073
1.00819794029073
1.00819794029073
1.00529798862321
1
1.00409897014537
1.00434992750124
1.00409897014537
1.00054838829607
1.00409897014537
1
0.997648436628609
0.997852920400053
0.997453247574083
0.998847455106519
0.995901029854633
1
1
1
1.00325315090906
1.00285347808309
1.00245380525712
1.00615310257652
1
1.00409897014537
1.00324385619213
1
1.00409897014537
1.00785403576607
1.00335539279474
1
1.00819794029073
1.00604156597389
1.01463917909059
1.0122969104361
1.01543852474252
1.01993716771385
1.01213890024908
1.00409897014537
1.00755660482583
1.00409897014537
1.0067572591739
1.0122969104361
1.01005688366734
1.01111648139202
1.00925753801541
1.00819794029073
1.00793768821798
1.00805851953752
1.0092761274491
1.00819794029073
1.01363534966723
1.0122969104361
1.01639588058147
1.01639588058147
1.0093597799011
1.00896010707513
1.00819794029073
1.0122969104361
1.01595902888796
1.00903446481021
1.01639588058147
1.01393278060747
1.02049485072684
1.01805963490353
1.01072610328292
1.0122969104361
1.02003011488268
1.01236197345429
1.00819794029073
1.0137654757036
1.00933189575045
1.01792950886714
1.01639588058147
1.0122969104361
1.02049485072684
1.0245938208722
1.01639588058147
1.01639588058147
1.0122969104361
1.01639588058147
1.0245938208722
1.02726140461762
1.02686173179166
1.0245938208722
1.02606238613973
1.02869279101757
1.02802357140197
1.02869279101757
1.0245938208722
1.0245938208722
1.02552329256048
1.02049485072684
1.02222366806705
1.02262334089302
1.01892404357362
1.02342268654496
1.02126631222811
1.0245938208722
1.0205227348775
1.01272446741273
1.02049485072684
1.01762278321002
1.02212142618136
1.0245938208722
1.02216789976578
1.04508867159904
1.05416031527678
1.05596349035204
1.04098970145367
1.04098970145367
1.03689073130831
1.0421143621965
1.03431609473173
1.02844183366172
1.03743911960438
1.02321820277352
1.02049485072684
1.01991857828008
1.00427556976616
1.0122969104361
1.00819794029073
1.00512138900247
1.00819794029073
1.0122969104361
1.01007547310111
1.01491802059706
1.01639588058147
1.01707439491395
1.01667472208799
1.0002416626389
1.02556976614507
1.09603301483447
1.23711752240042
1.58097557348419
1.89614083354995
1.80415102055926
1.18419340446881
0.957643975164565
0.920976317061444
0.901606127077404
0.912666840168058
0.966399598468186
1.02094099713719
1.04185411012377
1.05536862847154
1.05496895564558
1.058668252965
1.06734951853366
1.07426478789453
1.08599472060077
1.0857623526787
1.08536267985274
1.09017734319808
1.09169238204999
1.09454586013307
1.10425883927572
1.10247425363418
1.10558798378995
1.11067219392492
1.11085808826259
1.11887013421565
1.12358255567528
1.12605495036617
1.13385321783094
1.13164107521283
1.1409264973789
1.15053723463581
1.15684834739929
1.16533442391343
1.18387738409473
1.18434211993897
1.20033832769447
1.21724541770447
1.23233074320547
1.25242592110633
1.26631222812942
1.28441833661733
1.30041454437283
1.31971967133866
1.32869836784754
1.34429490277707
1.3525114325016
1.36070937279233
1.35781871584175
1.34592147823161
1.33594824701625
1.3006562070118
1.26536416700735
1.22597315685754
1.18608952671289
1.1471911365579
1.10687994943669
1.07999962821127
1.05771089712602
1.03839647544333
1.02649923783319
1.02049485072684
1.02188905825929
1.01739041528796
1.01989998884632
1.0122969104361
1.01619139681006
1.01169275383873
1.0071941108674
1.00409897014537
1.01049373536084
1.0122969104361
1.00559541956354
1.00409897014537
1.0122969104361
1.00439640108565
1.01219466855042
1.01539205115817
1.00819794029073
1.0122969104361
1.00889504405698
1.01639588058147
1.0147971892776
1.0122969104361
1.01149756478418
1.00819794029073
1.00819794029075
1.01149756478415
1.00250027884149
1.00409897014537
1.00159869130387
1.00819794029073
1.00819794029073
1.00409897014537
1.00819794029073
1.00819794029073
1.00819794029073
1.00819794029073
1.00819794029073
1.00819794029073
1.01080046101796
1.00599509238947
1.01000111536603
1.00140350224933
1.00719411086737
1.00759378369333
1.00778897274785
1.0158103134179
1.01170204855561
1.0122969104361
1.0122969104361
1.00819794029073
1.0122969104361
1.00819794029073
1.00930401159983
1.01568948209834
1.01639588058147
1.00829088745953
1.00459159014014
1.00499126296611
1.00948990593744
1.00579060861804
1.00610662899209
1.00658995426998
1.00409897014537
1.00409897014537
1.00369000260253
1.00410826486224
1.00448934825446
1.00898799122579
1.01520615682045
1.0122969104361
1.01018700970368
1.01058668252965
1.0122969104361
1.00819794029073
1
1
1
0.99931219095067
1
0.987703089563898
0.998113172472777
0.984942558649702
0.99052868349633
1
0.995901029854633
0.99201583819759
0.987888983901538
0.999414432836396
0.994915789865065
0.991802059709265
0.995371230992258
0.991802059709265
0.991355913298806
0.994785663828654
0.991086366509252
0.995901029854633
0.995901029854633
0.99131873443138
0.991802059709265
0.990268431423547
0.991802059709265
0.993819013272869
0.995901029854633
0.998782392088336
0.995901029854633
0.996319292114356
0.995919619288387
1
1
1
0.987703089563898
0.995901029854633
1
0.997220879652005
1.01321708740751
1.02049485072684
1.03267092984346
1.0245938208722
1.01297542476855
1.01941666356843
1.00262111016099
1.00597650295571
1.00182176450906
1.00677584860764
1.00409897014537
0.996523775885804
0.996124103059839
0.984133918280803
0.98360411941853
0.985556009963902
0.989078707662547
0.987703089563898
0.989878053314475
0.993326393278091
0.984728780161392
0.988428077480795
0.995575714763699
0.98777744729893
0.984078149979532
0.970433505595457
1.02642488009823
1.10699148603947
1.31902256757272
1.7022251552216
1.93088448525812
1.47668885005755
1.00912741197914
0.897497862215178
0.862493958434144
0.865505446704167
0.894012343384223
0.960925010224183
0.998029520020876
1.02696397367735
1.02049485072684
1.02776331932928
1.02816299215519
1.04098970145367
1.04864854816531
1.05194817265865
1.05435550433128
1.0521247722794
1.06184704613897
1.06192140387399
1.07235007621665
1.06968249247125
1.06684760382191
1.0740138305387
1.07788043276198
1.08607837305272
1.0964419823771
1.09427631334345
1.1007082574264
1.10440755474586
1.11220582221057
1.11180614938466
1.12107298211682
1.13150165445957
1.14346395508786
1.15436665799162
1.16222998847443
1.17656244190805
1.19508681265557
1.21108302041114
1.22871509833796
1.24717440606751
1.27053202959425
1.28047737665916
1.29933635721438
1.31971967133866
1.32458080826843
1.33495371230981
1.33611555192013
1.33415436665788
1.32034241736982
1.2993084730636
1.26771573037872
1.22436517083667
1.17993642413643
1.13682752723312
1.10511395322891
1.07696025579047
1.05356545339624
1.03055173439414
1.02685243707474
1.01495519946462
1.0112559021452
1.00345763468047
1
1.00409897014537
1
1
1.00409897014537
1
1
0.997443952857166
0.998187530207888
0.999256422649395
1
0.995901029854633
0.995901029854633
0.996756143807883
0.998745213220843
1
1
1
1
0.996746849090964
1
0.995947503439036
1.00409897014537
1
0.99884745510657
0.995901029854633
0.998048109454642
0.995901029854633
0.997248763802713
1
1
0.99985128452987
1
1
1
0.998550024166272
0.998150351340315
0.995901029854633
0.995901029854633
0.991802059709265
0.991802059709265
0.999749042644144
0.995901029854633
0.992350448005337
0.988651150685993
0.995901029854633
0.998252593225977
0.993753950254705
0.993354277428683
0.991802059709265
0.991802059709265
0.991802059709265
0.987796036732778
1
0.999154180763631
0.993047551771539
0.99099341934049
0.989757221995063
0.993456519314409
0.987703089563898
0.99828977209357
0.991802059709265
0.995901029854633
0.995901029854633
0.987703089563898
0.987703089563898
0.986160166561329
0.985546715247006
0.979505149273163
0.975406179127796
0.979505149273163
0.974848496114761
0.975406179127796
0.967208238837061
0.971307208982428
0.973324162546095
0.971307208982428
0.971307208982428
0.9735472357512
0.978045878722548
0.979505149273163
0.98360411941853
0.98360411941853
0.987563668810614
0.975406179127796
0.979505149273163
0.979505149273163
0.98360411941853
0.97754396401084
0.971307208982428
0.968370078447454
0.978742982488791
0.975768673086262
0.979505149273163
0.979068297579699
0.973816782540882
0.978268951927774
0.979505149273163
0.971307208982428
0.972970963304454
0.968472320333182
0.971307208982428
0.974941443283604
0.979440086254993
0.971307208982428
0.971307208982428
0.975406179127796
0.971307208982428
0.973240510094077
0.973640182920043
0.979505149273163
0.978538498717338
0.978938171543244
0.975573484031691
0.975870914971827
0.979505149273163
0.982572405844562
0.993038257054713
1.00409897014537
1.0122969104361
1.00935977990111
1
0.999330780384452
1
0.996031155891033
0.995901029854633
0.991802059709265
0.994460348737734
0.99007324236901
0.983762129605487
0.986132282410716
0.980676283600439
0.98360411941853
0.979505149273163
0.98360411941853
0.976261293080955
0.976233408930396
0.974179276499288
0.981977543964
0.981577871138095
0.98527716845744
0.987703089563898
0.976884039112224
0.974151392348879
1.04546046027431
1.15530542439726
1.45347994200047
1.80622374242486
1.89174443246426
1.27345986541008
0.955877978956815
0.897525746365815
0.868637766293704
0.878183440532579
0.927278135108062
0.986587723538239
1.00472171617652
1.01947243186975
1.0245938208722
1.0309699966539
1.03432538944866
1.04508867159904
1.04918764174441
1.05738558203514
1.05766442354165
1.06558352232588
1.06506301818046
1.07286128564517
1.07378146261661
1.08025988028397
1.08607837305272
1.08765847492278
1.09427631334345
1.09173885563436
1.09465739673568
1.10655463434576
1.10247425363418
1.11149012901064
1.11887013421565
1.13116704465176
1.13936498494249
1.14514629884365
1.15422723723837
1.16572480202242
1.18132133695208
1.19683421942957
1.20841543666578
1.2261590511952
1.25190541696092
1.26750195189041
1.29129642711069
1.29869502174949
1.31290664386354
1.33398706175394
1.32967431312015
1.34431349221086
1.34452727069911
1.34841246235623
1.33404283005516
1.30077703833123
1.25909952782816
1.22388184555884
1.18521582332594
1.13719002119186
1.10792095772766
1.07759229653859
1.05749711863778
1.04098970145367
1.02869279101757
1.02049485072684
1.01639588058147
1.01639588058147
1.01639588058147
1.01348663419715
1.00819794029073
1.00448934825448
1.00410826486227
1.0122969104361
1.01310555080494
1.00940625348548
1.01317990853994
1.0143882217348
1.02121054392685
1.01768784622824
1.02049485072684
1.02049485072684
1.0245938208722
1.02018812506974
1.01978845224373
1.01418373796338
1.02049485072684
1.0142023273971
1.01870097036843
1.01779008811389
1.02049485072684
1.02049485072684
1.02049485072684
1.02049485072684
1.01989069412945
1.01639588058147
1.01779938283078
1.0122969104361
1.0122969104361
1.00409897014537
1.00519574673757
1.00340186637917
1.00409897014537
1
1.00359705543371
1.00500055768305
1.00130126036358
1.00819794029073
1.00199836412985
1.0056976614492
1.01109789195818
1.01309625608801
1.00859761311673
1.00819794029073
1.0077982674648
1.0122969104361
1.01109789195824
1.00409897014537
1.00409897014537
1.00649700710118
1.00689667992708
1.00909952782836
1.00359705543364
1.0122969104361
1.00029743094021
1.00819794029073
1.00519574673753
1.00559541956352
1.00819794029073
1.00409897014537
1.00679443804143
1.00409897014537
1.00470312674272
1.00409897014537
1.00409897014537
1.00819794029073
1.01540134587495
1.00409897014537
1.00358776071677
1.00819794029073
1.00409897014537
1.00110607130908
1.00678514332457
1.00789121463358
1.00009294716887
1
1.00089229282079
1.00280700449867
0.997592668327355
1.00409897014537
1
1.00409897014537
1.00490761051416
1.00122690262864
1.01227832100239
1.00780756218169
1.0033089192103
1.00528869390634
1.00978733687773
1.00819794029073
1.00990816819718
1.0122969104361
1.01548499832696
1.00870914971934
1.00842101349591
1.01639588058147
1.0122969104361
1.01120942856082
1.0149087258802
1.01041008290887
1.00819794029073
1.0122969104361
1.02049485072684
1.01291036175034
1.0122969104361
1.02012306205142
1.02049485072684
1.02049485072684
1.02049485072684
1.01639588058147
1.01858013904894
1.0245938208722
1.01154403836863
1.02049485072684
1.02081087110087
1.0245938208722
1.02411049559431
1.0245938208722
1.04098970145367
1.0557032382793
1.05738558203514
1.05166933115218
1.03689073130831
1.04180763653935
1.04098970145367
1.03687214187456
1.03689073130831
1.02947354723576
1.0257742499163
1.02617392274232
1.02261404617618
1.01295683533482
1.0122969104361
1.01137673346471
1.00767743614524
1.01217607911663
1.00819794029073
1.00751942595827
1.00409897014537
1.00819794029073
1.00854184481541
1.01411867494515
1.01104212365688
0.993856192140384
1.03938171543278
1.09628397219022
1.23099230397354
1.61228947466262
1.92539130757924
1.76976056809209
1.1785515113203
0.939519277242742
0.902200988958138
0.915771275606953
0.928393501133928
0.98080640963685
1.0122969104361
1.06321336952084
1.05563817526109
1.04890880023785
1.06650369929739
1.06958954530252
1.06890173625317
1.08197940290735
1.06148455218051
1.09342119939015
1.09424842919282
1.1021024649589
1.09914674499012
1.09544744767038
1.10404506078742
1.0959307729484
1.11412982860534
1.11333048295352
1.131548128044
1.12865747109351
1.12296910436102
1.1308974978622
1.1236383239766
1.13918838532181
1.1639588058147
1.16992601405353
1.16622671673413
1.17749191359626
1.199817823549
1.19991077071764
1.22111201992776
1.26166486968774
1.258802096888
1.27679666877324
1.29512585046645
1.30332379075719
1.35227906457955
1.34021452206549
1.34658140313033
1.35997509015862
1.37367550284404
1.37313640926487
1.36844257723894
1.33870877793057
1.30711603524534
1.28692791017572
1.24404208647763
1.17956463546135
1.13240324199722
1.11309811503142
1.09619102502116
1.06558352232588
1.06148455218051
1.05176227832094
1.00813287727227
1.02303230843586
1.01674907982318
1.00882068632192
1.02183328995802
1.0182734133918
1.0577108971257
0.9919414804625
1.01177640629074
1.01441610588539
1.00317879317389
1.01785515113209
1.01377477042047
1.00409897014537
1.0122969104361
1.00709186898166
1.02869279101757
1.00627393389601
0.989441201621587
1.01528051455553
1.01107000780771
1.01093988177121
1.01112577610872
1.00841171877901
1.01128378629577
1.01477859984375
1.01267799382839
1.01160910138673
1.0204390824255
1.00819794029073
1.01639588058147
1.02902740082544
1.00244451054018
1.01434174815037
1
1.01390489645678
1.01398854890874
1.01318920325693
1.02044837714245
1.0048053686284
1.02534669293974
1.0122969104361
1.00354128713234
1.00800275123611
1.01525263040491
1.01364464438417
1.01544781945942
1.00054838829614
1.03234561475258
1.01204595308031
1.01984422054503
0.99789939398451
1.0122969104361
1.0122969104361
1.00594861880507
1.00819794029073
1.00924824329851
1.00819794029073
1.00844889764658
1.02854407554739
1.00355058184928
1.00819794029073
0.994441759303963
1.01585678700203
1.01268728854513
1.01173922742326
1.00576272446749
1.00895081235821
1.00925753801544
1.00009294716891
1.00819794029073
1.00169163847276
1.00409897014537
1.00819794029073
1
1.01308696137121
1.00694315351151
1.00648771238433
0.992712941963858
1.00421050674791
1
0.98993382161586
1
1.00511209428557
1.01423950626459
0.999414432836345
1.00819794029073
1.01038219875825
0.992917425735309
1.00047403056101
1.02049485072684
0.993084730639123
1.00618098672709
0.997341710971487
1.00225861620255
1.01677696397367
1.00173811205705
1.00105959772466
1.00753801539208
1.01613562850874
1.00013942075329
1.00517715730377
1.0135795813658
1.00401531769339
1
1.01015912555305
1.00566048258165
1.00116183961038
1.00667360672202
0.995538535896179
1
1.01508532550104
1.00167304903899
0.994274454400073
0.995901029854633
0.989682864259812
0.998336245677985
0.994330222701481
1.00323456147528
1.00866267613492
1.00416403316352
1
1.01156262780233
1.01343086589578
1
1.01423021154771
1
1.02186117410867
1.04315537048742
1.02516079860211
1.02049485072684
1.0166282485035
1.01702792132951
1.02356210729822
1.0272614046176
1.02276276164627
1.02423132691377
1.01345875004649
1.01336580287764
1.00342975052983
1
1
0.985723314867802
1
0.996012566457264
1.00646912295047
0.98541658921074
1
1
1.00819794029073
1.0201230620515
1.00002788415069
0.975833736104388
1.04753318213918
1.13161319106246
1.30774807599265
1.70157452504048
1.95037550656141
1.59328177863487
1.08970331263762
0.934416477674122
0.905203182511261
0.904422426293089
0.931516526006576
0.977255827787577
1.02974309402531
1.03663977395238
1.05096293266903
1.04918764174441
1.06050860690781
1.05328661188978
1.05773878127668
1.07378146261661
1.05603784808718
1.07481317619069
1.0752035542997
1.07788043276198
1.07941406104766
1.08755623303708
1.09535450050187
1.09701825482398
1.09073502621107
1.0987377774474
1.10657322377955
1.11477116407029
1.12706807450639
1.11992973194044
1.1105327731717
1.13432724839187
1.15166189537859
1.12941034316077
1.16472097259914
1.16807636539387
1.18813436442719
1.20167676692544
1.20373089935673
1.23040673681062
1.24190430159491
1.26811540320466
1.2853942818901
1.29512585046645
1.31658735174918
1.33218388667861
1.34809644198225
1.35589470944696
1.3648083429377
1.35767929508847
1.35442614417944
1.34252890656935
1.29639922667918
1.26347733948015
1.21490314904978
1.18333829051563
1.13979254191902
1.09960218611737
1.06862289474652
1.05483882960924
1.03689073130831
1.02869279101757
1.01080975573485
1.01146038591665
1.0122969104361
1.00409897014537
1.00421050674801
1.00204483771421
1.00683161690909
1.00262111016096
1
1.00807710897129
1.00158939658694
1
1.00409897014537
1
1.01636799643071
1.00655277540232
1.00819794029073
1.00530728334012
1.0122969104361
1.00619028144405
1.02316243447212
1.00280700449861
1.00089229282073
1.01278953043093
1.00829088745954
1.01670260623858
1.01159051195298
1.01119083912707
1.01079116630105
1.00190541696096
1.02408261144362
1.00672008030616
1.00819794029073
1.02168457448795
1.00409897014537
1.00040896754276
1
1.0051027995687
1.00269546789604
1.00540952522584
1.01608915492434
1.00520504145446
1.00710116369855
1.00069710376619
0.996198460794892
1.00819794029073
0.998996170576664
0.987703089563898
0.991802059709265
0.995901029854633
0.995901029854633
0.998401308696181
1.00239803695582
0.973807487824009
0.99880098152204
1
1
0.989301780867826
0.997100048332503
0.998401308696108
1.00630181804671
1
1.00689667992709
1.00090158753762
0.999498085288288
0.995798787968942
0.999405138119568
1.0075008365245
1.00519574673754
1
1.00189612224407
1.00770532029591
0.990398557459898
0.995901029854633
1
1.00020448377142
1.00019518905449
0.982479458675721
1
0.989013644644387
1.00409897014537
1
0.99849425586498
0.994014202327407
0.995901029854633
0.995594304197489
0.995901029854633
1.00262111016101
1.00089229282081
1
1.00169163847274
1.00200765884673
0.997509015875335
1.00362493958439
0.988511729932673
1.0036900026025
1.00000929471685
1
0.995901029854633
1.00409897014537
1.00250957355836
1
0.975406179127796
1
0.990435736327404
1
1
1.00409897014537
1.00137561809871
0.988539614083481
1.00522363088817
0.995575714763751
0.984942558649629
1.00551176711162
0.991802059709265
0.992415511023588
1.00388519165707
0.999814105662388
0.99941443283637
0.991802059709265
1.00542811465962
0.988957876343069
1.00218425846748
1.00516786258693
0.998884633974047
0.992517752909215
1.00094806112208
1.00016730490399
1.0118135851582
1.00264899431177
1.00434992750124
1.02942707365123
1.04925270476256
1.04347139086145
1.0352269769863
1.03197382607728
1.00209131129877
1.0245938208722
1.02049485072684
1.01639588058147
1.0234133918281
1.02869279101757
1.00409897014537
1.01573595568273
1.00555824069592
1.0100382942335
1.00052050414548
1.01157192251937
0.999442316987081
1.00409897014537
0.999786221511734
0.997378889839033
1.00222143733506
1.0059207346544
1.01497378889841
1.00205413243114
1.00622746031205
1.07988809160862
1.21085065248967
1.5601554076659
1.90919061605413
1.82841023162401
1.20027326467603
0.944120162099888
0.912397293378496
0.907973008142227
0.907898650407058
0.966037104509874
1.01244562590633
1.02506785143322
1.04596237498608
1.05201323567683
1.0540394839572
1.063510800461
1.07703461352556
1.07910733539054
1.08856006246033
1.06276722311042
1.06968249247125
1.09316094731757
1.09914674499013
1.08607837305272
1.09680447633558
1.09214782317723
1.11477116407029
1.12440978547781
1.11253113730145
1.12759787336875
1.13116704465176
1.13089749786218
1.12020857344683
1.14043387738402
1.14609435996571
1.15353013347207
1.16666356842766
1.16252741941468
1.18138639997016
1.20527382235892
1.22497862215108
1.21281183775141
1.22840837268085
1.26546640889308
1.27053202959425
1.30332379075719
1.31538833327122
1.33355021006043
1.33358738892799
1.35734468528068
1.36037476298454
1.37684500130089
1.353905640034
1.35574599397681
1.31247908688681
1.28782020299661
1.24599397702328
1.22627058779787
1.14424471130591
1.12941034316115
1.08974049150456
1.06979402907373
1.05992303974402
1.03355392794737
1.03982786184334
1.02869279101757
1.02655500613447
1.02869279101757
1.02593226010338
1.02553258727736
1.03527345057057
1.02063427148006
1.02869279101757
1.02261404617608
1.01837565527756
1.01493661003084
1.01639588058147
1.01497378889842
1.00819794029073
1.02452875785407
1.00474030561034
1.01615421794252
1.02033684053976
1.02049485072684
1.01133955459719
1.01775290924638
1.01639588058147
1.02028107223853
1.01639588058147
1.01753913075807
1.01788303528268
1.0071662267167
1.01622857567743
1.00546529352713
0.997434658140172
1
1.0106424508309
1.01435104286721
1.0188496858386
1.01675837453985
1.01880321225422
1.00409897014537
1.00419191731413
1.01300330891915
1.01154403836855
1.00409897014537
1.01695356359454
1.01620069152687
1.01874744395288
1
1.02743800423831
1
0.999851284529892
1.01539205115825
0.996551660036454
1.01124660742834
1.00964791612449
1.01454623192176
1.00369929731937
1.02049485072684
1
1.01359817079961
1.01204595308027
1.02019741978668
1.0005483882961
1
0.997248763802657
1
1.00214707959995
1.00155221771943
1.01639588058147
0.994729895527595
0.991802059709265
0.999860579246607
1.003652823735
1.00494478938176
1.00944343235303
0.995064505335041
1.00409897014537
1
0.997155816633844
1
1
0.991913596311791
1.00409897014537
0.987703089563898
0.995901029854633
1.00255604714277
1.01251068892447
0.998243298509155
1.0122969104361
0.971307208982428
0.999442316986991
1.00788191991676
1
1.00409897014537
0.998958991709124
0.994460348737767
0.995901029854633
0.997044280031301
1.00263969959478
1.00303937242072
0.998680150202723
1.0230323084359
0.996040450607939
