1.0087720655722
1.0087720655722
1.02717148632046
1.02321309833628
1.02631619671661
1.02856400549308
1.03690842626336
1.04086681424754
1.04193057911961
1.04386032786101
1.03969346460862
1.04386032786101
1.05188668859622
1.06023110936649
1.06140445900542
1.06814788533485
1.08087833889123
1.08772065572203
1.09980429494278
1.10655841553769
1.10986998918624
1.12260044274261
1.13596701636914
1.14912511472744
1.16377462275974
1.17982734423015
1.1953321418663
1.22252501671773
1.23364378156777
1.24198820233805
1.2644769843683
1.27641895602575
1.29386419666878
1.29386419666878
1.2941047547334
1.29052054022387
1.27855718003541
1.25361211396054
1.21412712462021
1.16932331091938
1.12193223987613
1.09205321718102
1.03237003164873
1.01130585158749
1
0.984155753797874
0.980328339111391
0.978069836069494
0.960525704925089
0.948343175202907
0.952301563187084
0.951753639352886
0.951753639352886
0.948837627709939
0.948530261940287
0.966117170146437
0.960175562093691
0.962971294704365
0.969297770497291
0.963826584308215
0.955482163537938
0.943211437579808
0.951753639352886
0.944232425390152
0.956139672138987
0.942981573780683
0.942981573780683
0.94503160155436
0.952894906195484
0.950558901183059
0.942214480412782
0.955800223573011
0.943069770016633
0.947883447604665
0.951753639352886
0.939966671636325
0.949954863909213
0.936435928454086
0.948289703875754
0.94606328363015
0.942981573780683
0.951304606020113
0.951732250822044
0.951347383081803
0.935043409281489
0.94172002790575
0.939603192426967
0.931940310901163
0.945526054061392
0.940153758373747
0.936182034011568
0.938595540994582
0.934340481506174
0.92982347542238
0.942257257474527
0.936513430424644
0.934209508208481
0.936216758920412
0.931774612694625
0.942981573780683
0.937499693326187
0.942313370914213
0.951753639352886
0.951753639352886
0.946752875027472
0.944023950121928
0.93276351770873
0.90979097743698
0.925437442636278
0.944614651017856
0.938595540994582
0.934987295841803
0.942981573780683
0.942981573780683
0.930328622194839
0.926370234210669
0.919690973473856
0.914067425456227
0.918835683869994
0.925437442636278
0.932894491006425
0.928936103022255
0.943441301378877
0.92982347542238
0.934209508208481
0.938595540994582
0.938595540994582
0.928794435459153
0.934383258567858
1.0129657273957
1.12520921443087
1.37401318665875
1.7905606122659
1.97892965500883
1.39407147669454
1.00040072041567
0.844385353385675
0.812969501842231
0.82295505200252
0.869918478243859
0.944732287937546
0.968191228563475
0.983134765987486
0.987093153971663
0.995437574741938
0.999395962726108
1
1.00292670590835
1.01127112667862
1.00670064926772
1.0043860327861
1.00755593887153
1.01394658025705
1.00108251129045
1.0262493890115
1.02532729170253
1.02631619671661
1.02496645460571
1.03686564920164
1.04165529614625
1.04649300437771
1.05395810490069
1.06140445900542
1.07847816828621
1.07451978030204
1.0821800197152
1.10282724923993
1.11594257053655
1.128245379291
1.13616215525936
1.15976012133588
1.18421337701625
1.20039442967171
1.21607561977988
1.2282260667058
1.2535640526737
1.25509282936919
1.27957552573324
1.28947816388268
1.29825022945489
1.29386419666878
1.29077443466646
1.26858232414057
1.22161889789923
1.17465547165789
1.13207807820266
1.09329337452507
1.05130932407832
1.0175039961953
0.994980489256327
0.978069836069494
0.962679907425391
0.960525704925089
0.959726528760976
0.955768140776748
0.951753639352886
0.946883848325167
0.95431686605189
0.938595540994582
0.945600913919374
0.945173269117443
0.947367606566785
0.946031200833887
0.946458845635818
0.942981573780683
0.938649012321687
0.938969714469403
0.936991904441091
0.932282401579722
0.928166367541783
0.927738722739859
0.946728844383994
0.940041531494313
0.934209508208481
0.939186241890463
0.934372564302437
0.938860129702551
0.942981573780683
0.935329386520301
0.932661985094737
0.941006405865014
0.925437442636278
0.932934625955545
0.92982347542238
0.933509222545748
0.934209508208481
0.938595540994582
0.937430243508482
0.938595540994582
0.932771569861568
0.932343925059638
0.934209508208481
0.93526522092779
0.934209508208481
0.92982347542238
0.934209508208481
0.934254927382808
0.925437442636278
0.938595540994582
0.931151829002438
0.92982347542238
0.936411897810661
0.93598425300873
0.932517675419017
0.921051409850177
0.926421063425191
0.934273673801007
0.934572987417881
0.930614599433705
0.93688772971443
0.927083856251454
0.92982347542238
0.936093837775557
0.925437442636278
0.924408402673052
0.930424870583681
0.925611192995655
0.930077369864928
0.921051409850177
0.923219074543482
0.925437442636278
0.918629850714324
0.918659291398004
0.92982347542238
0.925437442636278
0.942981573780683
0.938595540994582
0.925581752311977
0.924865488158649
0.93320990892892
0.940022785076074
0.913457978142141
0.903328244121166
0.916665377064076
0.917913586560962
0.924616877941324
0.925830362529302
0.925437442636278
0.92589981234711
0.925437442636278
0.917983036378714
0.919306105733608
0.916665377064076
0.914064783343645
0.912279344277975
0.917595526525884
0.916665377064076
0.929748615564433
0.933856723264501
0.933429078462576
0.922259484398007
0.925437442636278
0.927500806787958
0.921051409850177
0.967878704383566
1.06302973571969
1.23215551726623
1.60715760893897
1.94251907825531
1.77209840988753
1.1590590807831
0.888258765994696
0.829463078677535
0.802628524625443
0.842447678306525
0.911552511674265
0.970741118884439
0.982455868855595
0.982589484265873
0.994491446789481
0.984864091613417
0.982455868855595
1
1
1.00168654856424
0.995613967213899
1.00083125896038
1.0087720655722
1.0087720655722
1.0214784884851
1.01754413114441
1.01754413114441
1.02458158686542
1.01760565462435
1.03408589508164
1.02631619671661
1.03602910601604
1.04386032786101
1.05280350167995
1.06174654968398
1.06863705361665
1.08532589515721
1.10038971161343
1.11431754545222
1.12662035420667
1.1433573828491
1.15561200450168
1.1848361607084
1.18898968758279
1.20175750816066
1.22741355416363
1.23575797493391
1.26029137469746
1.26416169226065
1.26754799995218
1.27473240746154
1.26754799995218
1.26608326303419
1.2321550140063
1.21516144880868
1.16393491092611
1.12135751747089
1.08159183511697
1.03803623091303
1.00239740267743
0.987833448768481
0.962372541655735
0.94382352700648
0.95133933092902
0.938608877372647
0.934650489388472
0.937726915012667
0.933410457859222
0.927161358222043
0.929740563411658
0.921051409850177
0.919672227055596
0.922002947842827
0.921575303040896
0.921051409850177
0.929492079009241
0.92982347542238
0.925437442636278
0.927051773455192
0.92982347542238
0.927353854999617
0.926926210197692
0.922112532609666
0.925437442636278
0.92982347542238
0.921051409850177
0.921051409850177
0.925437442636278
0.926942188688339
0.925437442636278
0.916665377064076
0.925437442636278
0.925437442636278
0.916665377064076
0.916349959141585
0.916665377064076
0.928743732059647
0.92008389336688
0.915069666848433
0.909716117579033
0.923301860739268
0.923729505541199
0.912279344277975
0.911426696786757
0.90831831418116
0.916665377064076
0.921481696764747
0.908751243208368
0.914094224027237
0.905220500026116
0.907893311491873
0.912279344277975
0.912279344277975
0.907893311491873
0.908427898948013
0.916772319718285
0.921372111997894
0.921051409850177
0.919875418098609
0.923833806082787
0.916665377064076
0.912279344277975
0.906393849665039
0.912279344277975
0.916021204841091
0.916448849643017
0.907682194111008
0.903507278705772
0.907893311491873
0.912279344277975
0.903507278705772
0.910242652882364
0.912279344277975
0.908735138902691
0.899875002909507
0.895387437509393
0.890552245575498
0.89473521313357
0.899121245919671
0.900505712939479
0.895497022276193
0.910133068115544
0.912279344277975
0.909184298050443
0.903507278705772
0.90832900844658
0.907901363644649
0.912698936927123
0.907893311491873
0.909168193744872
0.914962850009153
0.918921237993329
0.914837160936748
0.904907850031175
0.912279344277975
0.897485400755011
0.885963147561367
0.898501230155076
0.888873874979026
0.912279344277975
0.899121245919671
0.907548452885765
0.903507278705772
0.904872999307365
0.900259744834784
0.894080346645164
0.890576402033949
0.890549603462913
0.897865110084932
0.89473521313357
0.89473521313357
0.899121245919671
0.900877370116664
0.897501505060564
0.904699374762954
0.897028566899341
0.908230117945206
0.912188505929381
0.9127978274285
0.903507278705772
0.905145765983099
0.970629143634842
1.07197303535349
1.28180823672343
1.70003969459702
1.97018728175044
1.5539584194382
1.02584753626168
0.822626046072222
0.770886435079248
0.790063895090508
0.840723888535543
0.908334544301609
0.939726239386726
0.947367606566785
0.952737260141785
0.94242559779371
0.956268003324037
0.956438985755863
0.956139672138987
0.968143167276565
0.96771552247464
0.971673910458817
0.978069836069494
0.975204653641068
0.975870214394893
0.98617634088787
0.982693784807496
0.995424238363875
0.991227934427797
1
1
1.0087720655722
1.01754413114441
1.02957706696566
1.02631619671661
1.03147737502339
1.03578326372632
1.04824636064711
1.06140445900542
1.08146375556185
1.09346976699709
1.11922747142904
1.13808397766286
1.14647910183268
1.16359558817516
1.17370946952039
1.20614354094676
1.23681632976585
1.23684577044947
1.24396613818121
1.2462433876413
1.25168500733185
1.25438990159387
1.24006902204716
1.21349364666272
1.18222474690762
1.13865303839806
1.09621467039329
1.04530342461829
1.01020459387896
0.984743686766205
0.950510714081245
0.9290482040868
0.925905096572338
0.912279344277975
0.91007154463563
0.907217056472627
0.903755888923094
0.903686313290375
0.911672664891447
0.90685898730342
0.903507278705772
0.897231632127368
0.899121245919671
0.900762375309619
0.900334730507695
0.899121245919671
0.904223668674118
0.907823861674121
0.912279344277975
0.912279344277975
0.907893311491873
0.907893311491873
0.910071670450568
0.916665377064076
0.919728340495346
0.906997886938973
0.903507278705772
0.907893311491873
0.911891834425088
0.912279344277975
0.914179778150604
0.909563755750535
0.899311100584599
0.909088175476542
0.912367414699083
0.912279344277975
0.912279344277975
0.907893311491873
0.907893311491873
0.904918418481691
0.903507278705772
0.910718484786165
0.912279344277975
0.907893311491873
0.904808833714838
0.89473521313357
0.904194227990439
0.907893311491873
0.908061651811056
0.907893311491873
0.900144875842704
0.897669971194714
0.902879084973434
0.901427810248478
0.908975696967236
0.899121245919671
0.89991777997119
0.886700926060555
0.903507278705772
0.895221613487833
0.903507278705772
0.900462935877795
0.901737943945717
0.88376616799938
0.895633405614019
0.891682943967721
0.895641331951891
0.899599719936063
0.89473521313357
0.895112028721035
0.883186035554046
0.891581285538784
0.901847528712531
0.899121245919671
0.890349180347468
0.891848516359399
0.893719509548408
0.890349180347468
0.885963147561367
0.885963147561367
0.893345461888492
0.893612692709105
0.890349180347468
0.89473521313357
0.890349180347468
0.896288146287508
0.892484636429544
0.902111991605596
0.88623314630953
0.898963599865908
0.89473521313357
0.895748148791182
0.900561826379207
0.899121245919671
0.890143473006797
0.887625665482157
0.89473521313357
0.895542441450509
0.895114796648584
0.886059270135186
0.89473521313357
0.904410629596545
0.907893311491873
0.89473521313357
0.896934960623105
0.892121283035073
0.900465703805345
0.899121245919671
0.903507278705772
0.903507278705772
0.903141157383728
0.907893311491873
0.906671900565978
0.906244255764054
0.912279344277975
0.921051409850177
0.921051409850177
0.91871817276524
0.921650162898834
0.925437442636278
0.92130794640537
0.891717543061704
0.89473521313357
0.903507278705772
0.916665377064076
0.916665377064076
0.919487782430819
0.914551309512842
0.916665377064076
0.915823298023326
0.899268197708014
0.903507278705772
0.899121245919671
0.90064750631754
0.909750842487914
0.91456452007594
0.916665377064076
0.917910944448361
0.909529156656594
0.915884821503204
0.916628010042586
0.920121386203336
0.922759472760224
0.922371711277459
0.923689496407064
0.989156895568087
1.09773891775305
1.32710184778055
1.76004119179411
1.99701629994769
1.52709907985315
1.02417633711367
0.846018178993102
0.797488609034666
0.815257571382648
0.862475017881439
0.933006969515693
0.959069145974841
0.970334862613293
0.97429325059747
0.973865605795545
0.973929645573165
0.989880960244403
0.986841901641696
0.989699157732251
1.00242961128863
0.990845834615106
0.99403964552912
1
1
1
1.00013625752292
1.0131580983583
1.01754413114441
1.02193016393051
1.02631619671661
1.03931136479592
1.04554423431264
1.04386032786101
1.04551756155658
1.06140445900542
1.06137778624935
1.07456255736372
1.08595673100216
1.10703160532881
1.12545769883314
1.13374588034876
1.14653257315979
1.16062887313268
1.17731771467322
1.18910996661501
1.20639227697893
1.22368767209116
1.24045942564244
1.25120389120283
1.25601756879085
1.26316196716608
1.26316196716608
1.26168653598273
1.24581272328208
1.21305518178047
1.17028529154766
1.12766524684564
1.08466020858848
1.04713164074562
1.00742219764635
0.986841901641696
0.971671142531268
0.956139672138987
0.942981573780683
0.940054993687282
0.938293459450155
0.92556300589378
0.920498201790745
0.910835870075963
0.924028944973004
0.921765157705828
0.916665377064076
0.923742841919266
0.922903530806026
0.924598131523075
0.917077043375354
0.921051409850177
0.912722967570554
0.925437442636278
0.93291059531204
0.926370360025636
0.932055305708178
0.921051409850177
0.922427950532114
0.916665377064076
0.916665377064076
0.916665377064076
0.912613382803759
0.917427060391785
0.921051409850177
0.913896317209531
0.912279344277975
0.912279344277975
0.922465191738741
0.921051409850177
0.919789738160339
0.921051409850177
0.921051409850177
0.907893311491873
0.907893311491873
0.913786732442679
0.914214377244604
0.905869956474328
0.910683634062355
0.904675344119467
0.902766858094002
0.903820054515618
0.912394213270055
0.908435825285885
0.904477437301714
0.899121245919671
0.905332726905576
0.901254185704067
0.899121245919671
0.897843595739122
0.902657273327198
0.89473521313357
0.899121245919671
0.89473521313357
0.89998181974876
0.903507278705772
0.890349180347468
0.885963147561367
0.885963147561367
0.884575912614009
0.893775622988143
0.899121245919671
0.899121245919671
0.898797901659308
0.891100169409754
0.890349180347468
0.887569426227504
0.892701289665507
0.887887612077481
0.888852360633279
0.889280005435204
0.890990710457808
0.894521327825154
0.886176907054877
0.885963147561367
0.891418229444828
0.885963147561367
0.887887486262578
0.885645213341197
0.885963147561367
0.893556453454451
0.886714262438558
0.890349180347468
0.890349180347468
0.885431328032777
0.883496043436308
0.903507278705772
0.895491738050901
0.892591579083784
0.89473521313357
0.899121245919671
0.899981945563664
0.89473521313357
0.894740623173701
0.890349180347468
0.893885333569901
0.897843721554072
0.900096940370712
0.899121245919671
0.897295671904961
0.905097453066316
0.896675781955265
0.903507278705772
0.903622273512756
0.911966694283032
0.908633606288738
0.895903152732361
0.899121245919671
0.899460820300489
0.899636961142702
0.891856694327079
0.887043016739053
0.89538743750933
0.903507278705772
0.886572343245633
0.89473521313357
0.89473521313357
0.896221212767433
0.890349180347468
0.883621858323654
0.881577114775266
0.882766568719803
0.891110989490081
0.88696564058343
0.89482869359481
0.889828055084299
0.89473521313357
0.902130863838739
0.896539272802532
0.901352950390566
0.899915263673402
0.897822207208326
0.922765134429973
1.00749227653889
1.13188696538853
1.46805968910013
1.840361164215
1.8825611130081
1.22906512618831
0.891478746405357
0.817213615435427
0.785084393481038
0.815324504902721
0.868459654625549
0.934460886353295
0.951451683623365
0.947367606566785
0.951753639352886
0.956139672138987
0.960525704925089
0.962965884664234
0.969297770497291
0.970388333940397
0.977406917428312
0.990992660588543
0.982071126930259
0.985601870112507
0.987889562208216
0.982455868855595
1
0.995889124372381
1.0043860327861
1
1.0043860327861
1.00842720696609
1.0043860327861
1.02529533472111
1.02537812091693
1.0337225416872
1.04206696245747
1.06140445900542
1.07803731292112
1.08595408888946
1.10176084225516
1.11010526302544
1.13160778215401
1.14872426849655
1.1693982965922
1.1829572411815
1.2027759796733
1.20614354094676
1.23061277511782
1.24265112097919
1.24901219586608
1.25056789694753
1.24561783602167
1.23713703191357
1.20901916601086
1.17773441357995
1.12753150562046
1.09134198562312
1.05114878428219
1.00857139082695
0.987924161302222
0.960525704925089
0.942981573780683
0.930005152119627
0.921051409850177
0.911004210395169
0.909357922594895
0.907291790515668
0.901187377998899
0.90625482421457
0.905471626541116
0.899121245919671
0.89473521313357
0.899121245919671
0.899620982651998
0.893807831599311
0.891704206683659
0.89473521313357
0.899121245919671
0.89473521313357
0.896055640375758
0.89213474522798
0.893804937856916
0.903507278705772
0.903117126740241
0.90432507547323
0.907893311491873
0.906220225120566
0.903507278705772
0.905364935516718
0.905033287473794
0.915663009856965
0.907893311491873
0.916665377064076
0.916665377064076
0.915248953062867
0.904643135508299
0.912279344277975
0.903507278705772
0.907893311491873
0.909432908267746
0.903507278705772
0.905840389975803
0.903507278705772
0.898950263487843
0.903507278705772
0.912279344277975
0.907893311491873
0.897239684280144
0.89265838678892
0.89473521313357
0.895956749874369
0.899915137858546
0.889982933210518
0.89473521313357
0.899610288386579
0.89473521313357
0.899121245919671
0.904349357746475
0.890349180347468
0.887721913870906
0.896459002904452
0.890349180347468
0.89473521313357
0.89473521313357
0.893976297733349
0.903507278705772
0.899121245919671
0.895336356665122
0.905597315613551
0.904156609339139
0.902066572431311
0.902494217233255
0.894149796462971
0.89473521313357
0.890619053280725
0.898423728184487
0.903507278705772
0.907893311491873
0.903932407209957
0.901099181762887
0.897570954878377
0.910034051799241
0.907893311491873
0.903774635341291
0.907893311491873
0.911691411309644
0.907893311491873
0.910836121705793
0.906022444117767
0.903507278705772
0.903507278705772
0.905971740718213
0.901898106297181
0.907893311491873
0.903507278705772
0.900077942322646
0.907893311491873
0.90045488372502
0.910518061670695
0.903507278705772
0.912279344277975
0.909595712731913
0.90442144967687
0.899607772088838
0.90362504144024
0.907893311491873
0.907096903255259
0.907893311491873
0.910627646437511
0.912279344277975
0.910400298936187
0.916665377064076
0.917689132802014
0.911683233341955
0.911942412009801
0.91640619839624
0.920364586380414
0.917708005035115
0.921051409850177
0.927853717546843
0.916665377064076
0.906332326185159
0.926570783141066
0.923320355527689
0.899399296820611
0.903806466507745
0.907893311491873
0.919041642840505
0.909325839798634
0.912279344277975
0.914567162188585
0.922721979923745
0.922951592092996
0.905137839645205
0.907893311491873
0.907893311491873
0.911811690341908
0.912279344277975
0.919728466310251
0.923686854294419
0.925467009134804
0.918445531904456
0.920722907179425
0.930748340658899
0.92494022220169
0.916874103962041
0.979591315501446
1.06670541765179
1.2727696952194
1.68651937517771
1.94242081682777
1.55578890023376
1.02339049732758
0.847523302489813
0.805800947008662
0.807552038610067
0.858404528832684
0.933862636564189
0.963807963704923
0.967766351689098
0.975642866893509
0.975683127657451
0.975255482855528
0.987985936411907
0.98755829160998
0.991516679594159
1
1
0.996608156453314
0.994192133172559
1
1.00210890914091
1.0043860327861
1.02318378346757
1.01671815640927
1.0087720655722
1.00880138044092
1.02147320425986
1.02981762503013
1.03508826228881
1.04650646657068
1.05490184237032
1.06919001004632
1.07153972888149
1.08146350393204
1.10138666878034
1.10534505676451
1.11403685243863
1.13957802944947
1.14353641743364
1.17055038351518
1.18654145569081
1.20555837590592
1.22368767209116
1.23245973766337
1.23808076938318
1.23722547977933
1.25024165894477
1.25066930374669
1.25438990159387
1.23111515396281
1.20077891996724
1.16977725103275
1.12525148823281
1.0874877723656
1.05117822496581
1.01634637341728
0.987098312381986
0.965467587883259
0.944948563728672
0.9356206479844
0.918504161641918
0.912279344277975
0.910587385673567
0.915401063261595
0.913952682279091
0.911870320079343
0.912279344277975
0.904399809516221
0.91315325448513
0.915363822054992
0.912279344277975
0.918822221677024
0.918466920435299
0.913653242847266
0.916665377064076
0.916665377064076
0.921051409850177
0.921051409850177
0.921051409850177
0.917857347306354
0.915045762019875
0.921051409850177
0.919140281712129
0.923953959300153
0.922107248384376
0.912279344277975
0.912279344277975
0.921051409850177
0.912279344277975
0.910058082442723
0.915299404832678
0.907893311491873
0.914300057182877
0.916665377064076
0.924272019335226
0.91592759856495
0.920741276152974
0.916665377064076
0.917210532970725
0.912279344277975
0.913679789788473
0.921051409850177
0.927693177750626
0.919348756980348
0.916665377064076
0.921051409850177
0.921051409850177
0.929815549084507
0.92982347542238
0.925437442636278
0.926728303379942
0.925437442636278
0.925437442636278
0.934209508208481
0.930055729704343
0.934209508208481
0.92982347542238
0.925640759494119
0.930475448168396
0.934209508208481
0.946186330589927
0.923828521857498
0.934209508208481
0.922973232253647
0.918159554665622
0.916665377064076
0.924798554638583
0.917087863455616
0.921267811456332
0.921051409850177
0.926608401792367
0.916665377064076
0.91859235787793
0.912279344277975
0.912279344277975
0.916665377064076
0.920302937085631
0.912600172240596
0.916665377064076
0.921051409850177
0.925437442636278
0.925437442636278
0.922868805897179
0.925541491548035
0.923724095501029
0.919765707516854
0.938595540994582
0.925437442636278
0.925440210563827
0.921051409850177
0.934209508208481
0.922331576328419
0.923729631356103
0.918915953768071
0.914102276180037
0.924042155536145
0.921051409850177
0.921051409850177
0.921051409850177
0.921366701957764
0.912279344277975
0.919880828138741
0.919453183336816
0.927797604107093
0.92982347542238
0.91954653798321
0.924360215571238
0.922350574376409
0.934209508208481
0.934209508208481
0.934842860351141
0.928620433470028
0.937106899248074
0.931739761970815
0.916665377064076
0.917822496582543
0.926624254468173
0.933450341178514
0.916665377064076
0.920955287276296
0.921051409850177
0.917616789241808
0.903507278705772
0.901700576924191
0.899203906300586
0.912279344277975
0.916665377064076
0.924568690839458
0.911838237283079
0.907893311491873
0.921051409850177
0.928139820600595
0.924167970423455
0.92982347542238
0.912142835125243
0.949597297999484
1.02879198206884
1.17891493466735
1.53517400513406
1.87052628996401
1.79137476040185
1.12723948926754
0.880017890877121
0.833707318085873
0.807370236097918
0.828445110424571
0.890670511569583
0.948455527897246
0.960525704925089
0.9651443694378
0.969102757421978
0.977447178192256
0.981405566176432
0.988319849122783
0.995613967213899
0.993280730128962
0.991227934427797
0.996811473311212
0.992767657018574
1.0043860327861
1.00430060447764
1.00489910589649
1.0087720655722
1.01480740571593
1.01136209084214
1.02193016393051
1.02896749383662
1.03070222950271
1.03334056768943
1.03947429507491
1.04386032786101
1.05222890508968
1.06495935864605
1.07330377941632
1.08333462293592
1.09437865374296
1.10710910729934
1.12422559364181
1.14473908194134
1.16723063189896
1.18434711824144
1.19269153901171
1.20908647697552
1.22253847891057
1.22807370487727
1.24799938602333
1.25877593437997
1.26030219477778
1.25767731878409
1.24494686522771
1.21832833533694
1.18038030065983
1.14218893999069
1.09522551374936
1.05264812029411
1.01635165764257
0.991746040133659
0.964390235003315
0.94177337341795
0.92982347542238
0.920698499091293
0.921126143893219
0.916665377064076
0.911349320631071
0.903507278705772
0.900906559170436
0.905720236758438
0.907893311491873
0.903507278705772
0.89562535346123
0.903507278705772
0.903472427981961
0.907107723335635
0.903507278705772
0.901617413283633
0.89641094161748
0.905789938206031
0.9053622934041
0.902079908809377
0.903507278705772
0.903507278705772
0.903362843215168
0.903224069394448
0.903507278705772
0.909031810407046
0.907893311491873
0.903108822957714
0.907893311491873
0.907893311491873
0.904616588567073
0.912279344277975
0.912279344277975
0.907893311491873
0.903507278705772
0.903507278705772
0.90496383765602
0.899121245919671
0.896809397365574
0.904600232631714
0.904726173333927
0.912279344277975
0.899848455968281
0.907893311491873
0.903507278705772
0.903507278705772
0.909585395911187
0.907893311491873
0.907893311491873
0.910523220081079
0.900449725314679
0.904408113298806
0.907893311491873
0.912233799288745
0.903889378518469
0.899121245919671
0.904744668122334
0.899121245919671
0.896827892153993
0.900986954883421
0.891859084809938
0.898110826559786
0.890349180347468
0.899121245919671
0.89473521313357
0.899121245919671
0.893607408483816
0.890349180347468
0.89473521313357
0.892759919402996
0.896025948062373
0.896881237666223
0.895427572458369
0.89473521313357
0.890512110626519
0.890939755428443
0.889330960464568
0.896181077818394
0.892861703646816
0.89473521313357
0.897464012224169
0.891578769241046
0.88676509165302
0.890723479637192
0.886016493073565
0.885963147561367
0.89473521313357
0.891685460265443
0.89473521313357
0.892540749869289
0.900888064381985
0.890349180347468
0.895646741992022
0.899121245919671
0.89906500666508
0.899492651466948
0.890349180347468
0.897894550768532
0.905161618658842
0.898899182643571
0.896611616362739
0.897672487492432
0.899121245919671
0.89473521313357
0.899121245919671
0.886224968341848
0.898431780337265
0.891466290731799
0.89473521313357
0.899121245919671
0.890763237141585
0.89473521313357
0.896859849135377
0.89473521313357
0.886238556349664
0.894887449147201
0.89473521313357
0.891356705964949
0.893300042714164
0.899121245919671
0.907893311491873
0.902457101841513
0.911039061118978
0.895547851490641
0.903892272260919
0.907893311491873
0.891289772444887
0.891247121198109
0.893409627480995
0.90175404825127
0.910098469021573
0.899121245919671
0.899121245919671
0.890349180347468
0.894240634811569
0.881577114775266
0.881577114775266
0.881577114775266
0.890349180347468
0.89473521313357
0.89473521313357
0.886574985358291
0.887422600254025
0.885963147561367
0.89533937622237
0.89473521313357
0.877693335019289
0.928779337672586
1.0207444844325
1.18730250994391
1.58197223642853
1.8760618933755
1.63832522770948
1.03839706800994
0.826803477775128
0.805297939089247
0.798100950091133
0.813509876783213
0.884368192235096
0.934322112532633
0.945515485610873
0.951753639352886
0.949046228793129
0.961776682349504
0.970121103119785
0.973288115462827
0.986777987678977
0.981996267072305
0.985954655056475
0.998685108612852
0.997356503402982
0.995613967213899
0.995613967213899
1.00136056219127
1.0087720655722
1.01366337094572
1.01323572614374
1.02561616268374
1.01832179296282
1.02193016393051
1.03508826228881
1.04179973163685
1.03947429507491
1.04388473594914
1.05910343053162
1.0651756344373
1.0705509496822
1.08772065572203
1.10021067702876
1.11623144151776
1.1329202830583
1.14522309181276
1.15752590056721
1.18421337701625
1.19644170335742
1.20248195028172
1.21461880919983
1.22781200991169
1.23190124537865
1.24123180323557
1.23387351955193
1.22552909878165
1.1997926570657
1.16767664567442
1.13092032960979
1.07999851538427
1.03468188020282
1.00006378814781
0.971542308086628
0.955263119819189
0.923659804093635
0.923592744758716
0.910052798217464
