0.903359932810439
0.899977589480295
0.904179331532015
0.905103478697432
0.901721135367288
0.899158190758719
0.897414644871726
0.907561674862159
0.910839269748461
0.898643742954089
0.899053442314877
0.903359932810439
0.899158190758719
0.910639067275358
0.915564754019393
0.914021410605503
0.911763416913879
0.910324821943831
0.908590570471419
0.911144220665407
0.911972913801564
0.932371722226268
0.92077680285121
0.926531182731402
0.931342826617013
0.926207642985293
0.930819084397801
0.930800495568638
0.910629772860777
0.916689103657914
0.920166901017319
0.924177735010515
0.924873796459095
0.920166901017319
0.915965158965599
0.920166901017319
0.922310851850549
0.918518809159623
0.914726766468696
0.907561674862159
0.904616914136386
0.915983747794643
0.924769048015305
0.924368643069039
0.929790188788601
0.93114262414385
0.928570385120759
0.924368643069039
0.927227244180032
0.928570385120759
0.928046642901607
0.946289696194554
1.02822956835235
1.15748934412063
1.50385436821165
1.88663690846138
1.90125243412068
1.28324241964424
0.965534506974302
0.877209254389518
0.840333802034638
0.861998886199858
0.906416226510657
0.977189467483268
0.989575902336218
0.98739477384484
0.99579825794828
0.99776059513748
0.997350895776692
1.01031934921991
1.01113874794149
1.00387820230567
1.00008615961474
1.01310108513069
1.01260522615516
1.02521045231032
1.02521045231032
1.01894162462559
1.0184643544791
1.02941219436204
1.0420174205172
1.0340422246036
1.03361393641376
1.04162630998546
1.05122171451317
1.05882438872408
1.06560766421341
1.06925778080242
1.0840348410344
1.08688414773087
1.09149558914338
1.10557658792668
1.12209719404565
1.13054036569122
1.15827407506798
1.15856043715588
1.17075596395026
1.19135497484807
1.21802261095748
1.22414951254025
1.22794155523119
1.23173359792212
1.23949929694804
1.25192290945914
1.24429235200462
1.23629856726197
1.217079874963
1.19033788353739
1.15572293475792
1.11032317091057
1.08173037527011
1.04819330405656
1.02034304193746
1.00015373040044
0.986908209283828
0.96756190506535
0.968997990151437
0.9579825794828
0.951704457383545
0.958850960161038
0.95378083743108
0.952933555465926
0.949579095379359
0.949579095379359
0.965622431351796
0.95378083743108
0.95378083743108
0.955391751630665
0.953941352362053
0.959095124822757
0.96638606358624
0.95378083743108
0.961641990486324
0.949711727066768
0.95378083743108
0.961497554500352
0.9579825794828
0.9579825794828
0.962554333353178
0.959858757057201
0.956516101269186
0.956925800629974
0.960890162550443
0.961946941403269
0.9579825794828
0.9579825794828
0.961192603583393
0.95938399679472
0.959793696155514
0.960203395516307
0.94537735332764
0.950740622676028
0.95378083743108
0.959008965208079
0.949849378522143
0.952349026991612
0.9579825794828
0.95378083743108
0.94708372155651
0.95378083743108
0.9579825794828
0.9579825794828
0.957126003103124
0.946717984384285
0.96218432153452
0.949951617082059
0.956418137355824
0.95378083743108
0.950182212682829
0.95378083743108
0.948938800417802
0.950950119563653
0.946338678151145
0.945928978790357
0.94537735332764
0.957447032965084
0.949579095379359
0.95378083743108
0.954988836800358
0.947672524677351
0.95378083743108
0.956506806854664
0.948513022112011
0.944720979421079
0.949332420833587
0.941175611275919
0.932772127172479
0.937956292760804
0.936973869224199
0.936973869224199
0.949579095379359
0.935393348152259
0.944206531616492
0.948817973029006
0.949227672389745
0.953722561059906
0.941643587007887
0.952903162338319
0.932772127172479
0.943680279513291
0.941163806977356
0.94200681429607
0.941175611275919
0.931167997503352
0.94537735332764
0.94537735332764
0.941902065852276
0.941948537924886
0.941175611275919
0.941175611275919
0.941175611275919
0.941175611275919
0.94537735332764
0.942146230513948
0.933333047049719
0.941024390759467
0.92488560075771
0.939839254865673
0.941175611275919
0.938461446150899
0.928570385120759
0.936973869224199
0.942660678318577
0.943326346639659
0.946043021648721
0.940663673355331
0.932925857572975
0.941175611275919
0.934718385416645
0.922932557983071
0.924368643069039
0.928570385120759
0.935384053737737
0.938815379024581
0.93011121865051
0.936973869224199
0.936973869224199
0.925744687021374
0.926105404425517
0.925646723108071
0.925194826321107
0.924368643069039
0.921861464947626
0.936973869224199
0.936973869224199
0.928570385120759
0.936862336249935
0.940821678402263
0.939648346807033
0.938147200819431
0.94799606442334
0.938750318122901
0.956173227572391
1.0321256143653
1.15951776185182
1.48806151082788
1.87717264537725
1.92491601349315
1.29790237809655
0.963615857455098
0.874180843933209
0.838445820161674
0.867054694747142
0.912607443873336
0.964353645727303
0.983867994528724
0.99159651589656
0.98739477384484
0.992150651243327
1.00323790734416
1.00282820798337
1.00483701724515
1.00840348410344
1.0132008138064
1.00539115259191
1.01602725702748
1.01297523797376
1.02517076476813
1.02521045231032
1.02521045231032
1.02521045231032
1.03613719348018
1.03781567846548
1.03781567846548
1.04751332155296
1.04621916256892
1.03829043872793
1.0504859655223
1.05882438872408
1.07218395269916
1.0840348410344
1.0840348410344
1.09465663128728
1.11525564218509
1.12745116897946
1.1406359038409
1.15546445591364
1.17664297551774
1.18859861229682
1.2052357711582
1.21849058668944
1.22815783664929
1.2376206094896
1.24561439423225
1.25900435133494
1.2489967375624
1.24301678184964
1.2182160289001
1.20208904319692
1.17336110598501
1.124714140379
1.08256157829035
1.04799310158355
1.0189906065823
0.998391595684493
0.98800040103242
0.96559705799232
0.957603273249673
0.937004262351866
0.937854054201108
0.940325819426677
0.94537735332764
0.944513992417555
0.939052759155775
0.941175611275919
0.941175611275919
0.936080115186436
0.936489814547229
0.936899513908023
0.932436783127867
0.9362288258188
0.946532096093827
0.94537735332764
0.922394501581276
0.93095422596931
0.938382071066581
0.948580592897766
0.936385066103394
0.937152972984217
0.941175611275919
0.941175611275919
0.942225605598264
0.938433562907332
0.936973869224199
0.938896518871211
0.934285077458703
0.934767367373328
0.932078575607832
0.92885423732462
0.932772127172479
0.924904189586762
0.926259134826072
0.932772127172479
0.920166901017319
0.922194299108142
0.927604040529098
0.925576642438275
0.924368643069039
0.924368643069039
0.928591483833904
0.923937844995107
0.923528145634319
0.928570385120759
0.922708746912743
0.920166901017319
0.926091090242912
0.92147964883038
0.920166901017319
0.928077036029267
0.920166901017319
0.915965158965599
0.920166901017319
0.917876004313987
0.915965158965599
0.905596827788918
0.914137963347908
0.913180913170782
0.916972955861714
0.911763416913879
0.915965158965599
0.915965158965599
0.907561674862159
0.914924459057776
0.910313017645269
0.907561674862159
0.905629730800626
0.907561674862159
0.921279446357277
0.911060570934709
0.915965158965599
0.907678227604566
0.911763416913879
0.90568977193417
0.909072115264304
0.920857942697877
0.916093516006629
0.915965158965599
0.921384194801077
0.911763416913879
0.910967626789537
0.903371737109062
0.919323893698498
0.911763416913879
0.905079870100186
0.917615760707373
0.920166901017319
0.911763416913879
0.907561674862159
0.915052816098791
0.915965158965599
0.911670472768658
0.911446661698311
0.911763416913879
0.905632240684727
0.910217563615947
0.911472780179598
0.901523442778226
0.899158190758719
0.904377024121077
0.904574716710139
0.907561674862159
0.907349668090433
0.903981638942953
0.907561674862159
0.907561674862159
0.901008994973597
0.905301171286495
0.909093213977427
0.91820883847456
0.924368643069039
0.919864459984415
0.911656158585994
0.928053427432081
0.921093558066791
0.910427060503614
0.90161387703938
0.909607661782026
0.919237734083746
0.91894031281904
0.920983789854806
0.923554264115654
0.911763416913879
0.912175626158768
0.905917857650805
0.900389798725184
0.899158190758719
0.907561674862159
0.907561674862159
0.913094753555983
0.923447005787723
0.911763416913879
0.911763416913879
0.915965158965599
0.911763416913879
0.912890276436501
0.921703459900729
0.911763416913879
0.974594639503412
1.06478175548012
1.25460648537219
1.66915392258339
1.9544164067512
1.61660545980832
1.09155406159876
0.881102515999859
0.833549506904728
0.830088808130843
0.869445320126113
0.938935461291636
0.956043105769082
0.979712724549613
0.982881296345693
0.9789912897414
0.990581189348248
0.99067915326161
0.99579825794828
0.993333277253097
0.99579825794828
0.998354418026404
0.998764117387198
1
1.00041648389121
1.0083899150426
1.00759765444271
1.02019609606745
1.01978639670666
1.02684246522305
1.03577396619196
1.03956600888289
1.0420174205172
1.05228276801232
1.05514387900741
1.05462264667236
1.066929706441
1.07492349118365
1.08711901797802
1.09626001583462
1.11151007156677
1.1153021142577
1.12474127850082
1.14072884798612
1.16511990157487
1.18487665027568
1.19328013437912
1.20528224323081
1.22066669541265
1.22269232874116
1.23766708156221
1.24566086630486
1.25630626515492
1.23949929694804
1.22963435439913
1.20944504286211
1.17253743261705
1.13224747904186
1.10265794568214
1.06121148457847
1.03459459518809
1.01054065040625
0.981538155405002
0.973544370662356
0.961348843867989
0.95378083743108
0.941175611275919
0.94537735332764
0.941175611275919
0.930346088897639
0.933728432227783
0.932772127172479
0.917724783797536
0.925870534178462
0.923428416958678
0.924899169818612
0.932892954561264
0.940886739303916
0.941175611275919
0.940067340582341
0.94537735332764
0.94537735332764
0.939311238000141
0.941175611275919
0.941175611275919
0.946012628521056
0.94537735332764
0.949579095379359
0.944783530438692
0.944373831077904
0.942588832886443
0.939352690304609
0.943408231608018
0.938533291583033
0.933921850170525
0.944637329690382
0.941505935552389
0.924606768321995
0.932772127172479
0.929469158926665
0.9356653960575
0.934490299699973
0.936973869224199
0.932772127172479
0.931517655730633
0.931927355091427
0.924803715789298
0.93272138045355
0.932387801171156
0.939587560551696
0.932772127172479
0.931158703088794
0.924368643069039
0.932772127172479
0.927211165235089
0.925318163593922
0.928570385120759
0.936843747420892
0.936414714109239
0.928570385120759
0.933871103451536
0.930079060760603
0.936973869224199
0.9388475369145
0.932772127172479
0.924368643069039
0.929859524336633
0.93253725692533
0.924368643069039
0.929154913595184
0.932772127172479
0.931368199976478
0.930384011677548
0.932772127172479
0.933836435677489
0.930454092347345
0.924368643069039
0.920506519708312
0.928500304450963
0.932772127172479
0.931882647781095
0.924368643069039
0.90927055297513
0.911763416913879
0.920166901017319
0.918492690678335
0.924368643069039
0.92105563528688
0.920166901017319
0.923993611482238
0.920166901017319
0.918972470708943
0.914361029296434
0.930584214150712
0.920166901017319
0.920166901017319
0.928570385120759
0.932223011593862
0.916104575183429
0.916235442108558
0.920166901017319
0.931682445307946
0.925868024294361
0.92245956248293
0.922049863122142
0.927097122376725
0.928570385120759
0.920166901017319
0.920166901017319
0.928404850421643
0.928570385120759
0.928570385120759
0.931377494390999
0.926766052978491
0.932772127172479
0.936973869224199
0.92740207329367
0.927811772654457
0.928570385120759
0.920227687272594
0.928570385120759
0.931891942195618
0.931482242834824
0.931969552517657
0.936973869224199
0.936973869224199
0.934045187443369
0.940312250365822
0.932318465623176
0.928614347309269
0.925100117413597
0.932772127172479
0.928570385120759
0.930165220375401
0.936973869224199
0.934559635247981
0.931326002550188
0.94537735332764
0.949579095379359
0.949579095379359
0.94537735332764
0.948908407290136
0.939134644124223
0.924368643069039
0.935074083052612
0.935081612704855
0.943894796169082
0.9432316377321
0.936973869224199
0.944616976099059
0.941019370991325
0.92913632476615
0.932772127172479
0.928570385120759
0.926775347393014
0.936973869224199
0.942762916878318
0.94537735332764
0.946913167089285
0.949937302899395
0.95378083743108
0.957521388281253
0.961313430972179
0.949579095379359
0.979764490909065
1.0567296943662
1.20272839695224
1.5587772989847
1.90576599005455
1.84337211476801
1.20864917430415
0.942320510590545
0.893819275129456
0.858316611720851
0.870776656768156
0.929415431720374
0.978383152669729
0.997185361077516
0.99579825794828
1
1.00015800504687
1.00865517841735
1.01614557453218
1.02413935927483
1.02248950265488
1.01680696820688
1.02291026119247
1.03090404593512
1.03781567846548
1.03714322561398
1.03466495037662
1.04216436638727
1.05350935621062
1.05558899126401
1.0630261307758
1.05882438872408
1.06503243015351
1.07563135693096
1.08101999963881
1.09166112384249
1.09207082320328
1.10075741438882
1.12004293235178
1.12012732720425
1.14285922975848
1.14369898207139
1.15757550373516
1.17227142412052
1.1819665573239
1.2025655682217
1.21849058668944
1.23122091487971
1.24335389065653
1.25134767539918
1.26354320219355
1.26733524488448
1.27288338288285
1.2797106205607
1.27731497541352
1.2585346108407
1.22574007314852
1.18454205135289
1.14803057140777
1.11895297596852
1.08509663965537
1.05630689654766
1.02288990760114
1.00229089670333
0.996997708024798
0.990505069269746
0.975471294955705
0.979263337646638
0.970863108549065
0.974242196873334
0.97058780563796
0.969221056100027
0.969938961383641
0.97058780563796
0.968981911206516
0.975985742760334
0.97478954768968
0.97478954768968
0.966451869609654
0.96218432153452
0.97478954768968
0.980253290835489
0.972259506092842
0.97058780563796
0.97058780563796
0.973488604175222
0.975680791843343
0.97947283453427
0.978919444309325
0.975465255547105
0.97058780563796
0.9789912897414
0.9789912897414
0.97478954768968
0.9789912897414
0.97758559778312
0.96638606358624
0.96218432153452
0.966562657462156
0.97058780563796
0.97058780563796
0.965333559379793
0.96218432153452
0.964056224462542
0.96410446129743
0.976299988091804
0.973688806648345
0.9789912897414
0.974226863050162
0.96638606358624
0.96638606358624
0.967333819348857
0.96638606358624
0.963951476018725
0.968562917431238
0.963799510380484
0.965180574101105
0.97819549961701
0.97058780563796
0.96638606358624
0.97478954768968
0.971430812956733
0.973536841010111
0.968925399597599
0.968458168987394
0.967344133403834
0.971898043566938
0.967286602154425
0.963165999949302
0.97058780563796
0.96671462310043
0.960935614982716
0.97058780563796
0.96327074839313
0.964418706628898
0.968210749319831
0.971959574944075
0.961179034522504
0.95378083743108
0.9662001752958
0.96218432153452
0.96218432153452
0.96218432153452
0.960731412381807
0.96638606358624
0.97478954768968
0.972107540454604
0.967496099042095
0.973388875499539
0.970297168903678
0.974670485063173
0.961655559547218
0.97058780563796
0.96923964492907
0.967072085498595
0.97478954768968
0.96638606358624
0.977776505841742
0.96638606358624
0.97439416251161
0.974775233507015
0.97058780563796
0.967219776490492
0.980234702006445
0.97058780563796
0.983116911714666
0.965642784943108
0.971907337981459
0.973879714706973
0.9789912897414
0.97058780563796
0.982554501593785
0.974060583229222
0.980915704150633
0.981644668611086
0.976747610232499
0.96822004373435
0.97478954768968
0.9789912897414
0.974184665623931
0.987004408434916
0.978776773085573
0.990972299879946
0.982159116415719
0.97754767500321
0.9789912897414
0.960245592942565
0.97058780563796
0.973670217819301
0.978281659231808
0.975089478838484
0.97478954768968
0.971626740783518
0.963113488468093
0.966200920417619
0.961479710793122
0.966271275606052
0.959616357157773
0.961654814425335
0.96638606358624
0.97478954768968
0.970597845174244
0.96638606358624
0.96556164509651
0.97478954768968
0.977347472530082
0.968534289065849
0.96145963172043
1.03031049756476
1.11607308005975
1.30889535667701
1.72099110773517
1.98213988050669
1.569837299313
1.08367051567202
0.922121434035645
0.892095063193321
0.890754706655279
0.911961384021525
0.97786117521285
1.00543009501226
1.02521045231032
1.01680696820688
1.01506491256352
1.02838757339916
1.03494703781815
1.04673286525173
1.04621916256892
1.04775748621461
1.04929228033574
1.05954331364819
1.05913361428741
1.0630261307758
1.07881275266616
1.07563135693096
1.08536441291424
1.07983309898268
1.08413104018554
1.08915218095885
1.08823658308612
1.09581639382165
1.10462957728589
1.11764022815552
1.10124723395575
1.11683365337295
1.12062569606384
1.13609026845184
1.14297252749502
1.16316183903204
1.18335115056905
1.19328013437912
1.20272106338448
1.21870863286977
1.23889794440679
1.25139414747179
1.26779141631788
1.28265891081099
1.29218246990663
1.304377996701
1.30672716977556
1.30569399951998
1.2941219436204
1.27688743234552
1.26050800720664
1.23291269440732
1.20371427157928
1.14998435930422
1.12078593647617
1.08236463082312
1.05727677066387
1.02713635696319
1.01535052952961
1.00388322207387
0.9916876952795
0.983693910536855
0.975700125794208
0.984754218914195
0.977261312915284
0.98319303179312
0.9789912897414
0.97058780563796
0.97815832195897
0.978144752898127
0.978964151619716
0.970983935937905
0.97478954768968
0.97478954768968
0.973164319307408
0.972622733381057
0.9789912897414
0.9789912897414
0.975727263915953
0.978463272875919
0.97478954768968
0.982610268080914
0.974088466472788
0.971698586215639
0.969067325699492
0.972859368390425
0.977129426349722
0.96638606358624
0.97478954768968
0.967018828895553
0.978768223792873
0.974602914277417
0.97478954768968
0.971593837771794
0.969172074143334
0.97478954768968
0.968621193802441
0.96218432153452
0.963331534648466
0.964173522326767
0.970259991245589
0.96218432153452
0.96638606358624
0.961283037844513
0.96507508053544
0.964665381174647
0.97058780563796
0.96052266061598
0.96218432153452
0.967228325783192
0.961751758698362
0.953803700906444
0.958369415368222
0.96218432153452
0.96218432153452
0.961214447418374
0.96218432153452
0.951345504741741
0.9579825794828
0.9579825794828
0.961647010254518
0.954036061269497
0.954062924872662
0.95729079268043
0.96218432153452
0.952269651907135
0.959903464367532
0.958442005922121
0.955242295876492
0.950630854463983
0.965101944138567
0.95775021911975
0.9579825794828
0.950166133737886
0.955774312869711
0.95378083743108
0.951964700990188
0.951555001629401
0.95378083743108
0.959139087011265
0.965639255418561
0.95378083743108
0.953853427984978
0.95750028956811
0.96218432153452
0.965084374949963
0.957203613425223
0.962224754198529
0.9579825794828
0.963445577506788
0.961332764923045
0.96218432153452
0.958014737372687
0.957605038011898
0.96218432153452
0.946574293520117
0.95378083743108
0.94537735332764
0.949579095379359
0.941175611275919
0.942131916331236
0.941175611275919
0.94537735332764
0.941175611275919
0.940493118888073
0.949579095379359
0.946879244437062
0.947667504909148
0.95378083743108
0.95504107376293
0.961123268035374
0.95378083743108
0.945619008105209
0.949579095379359
0.95378083743108
0.956995136178007
0.952373380710519
0.963991163560889
0.955766038095644
0.9579825794828
0.95378083743108
0.95378083743108
0.958328982704212
0.966322767446864
0.957509583982629
0.954663532292043
0.9579825794828
0.95378083743108
0.960072528591178
0.9579825794828
0.95378083743108
0.961323470508525
0.97058780563796
0.966344611281833
0.95378083743108
0.9579825794828
0.949579095379359
0.9579825794828
0.960177277034989
0.951364093570762
0.95378083743108
0.94537735332764
0.9579825794828
0.945523554075892
0.937500866449273
0.941175611275919
0.944294455993527
0.94808649868446
0.954177987371422
0.96218432153452
0.959462626757255
0.96218432153452
0.96152367298164
0.969834958061682
0.949737845548054
0.987617369190177
1.06487171913799
1.22292151253242
1.59675933570543
1.91385224833947
1.73527238742439
1.14289401518275
0.936583229295587
0.905427489046549
0.873893736723544
0.884698160260969
0.945212093147158
0.994515158141045
1
1
1.00337908832421
1.00840348410344
1.01173508071464
1.01772786036633
1.02095796353967
1.02869428907833
1.02941219436204
1.02941219436204
1.03043783496531
1.03581792838047
1.03781567846548
1.04483456932378
1.04104252663285
1.04929051557352
1.05026540945787
1.05436844247434
1.05462264667236
1.06195252785621
1.06994631259886
1.07794009734151
1.07563135693096
1.08823658308612
1.09135868280965
1.10084180924128
1.10582428211285
1.13010454784915
1.14174091952856
1.14285922975848
1.15828764412883
1.17647316617224
1.19108218182101
1.20907354079992
1.22269232874116
1.24027398835929
1.24826777310194
1.26046329989631
1.26800267796783
1.26891149131008
1.26725736004379
1.252953295312
1.24367037135352
1.21929465158791
1.17260574852474
1.13601916814164
1.09102910365511
1.05852418305682
1.02625942699233
1.01488329891953
0.99276557284547
0.97478954768968
0.96218432153452
0.96638606358624
0.96218432153452
0.948594907080492
0.949579095379359
0.945542142904935
0.961939411751026
0.95509005571964
0.956918270977731
0.949579095379359
0.952331457802865
0.960275986070232
0.9579825794828
0.960006448049095
0.946056590709565
0.949579095379359
0.95378083743108
0.95378083743108
0.958942139544026
0.960815062112506
0.947156312110442
0.95579392133921
0.95378083743108
0.951966465752468
0.957198593657032
0.96218432153452
0.95378083743108
0.949579095379359
0.9579825794828
0.95378083743108
0.95378083743108
0.94537735332764
0.952072704439931
0.949579095379359
0.948690361109799
0.957024509665264
0.953711501883104
0.95378083743108
0.946127416501241
0.947259570310578
0.941175611275919
0.941175611275919
0.942988492710886
0.939772429201738
0.941175611275919
0.941759394628525
0.94502918534401
0.941175611275919
0.940530296546158
0.941175611275919
0.938438582675533
0.938848282036322
0.94309324115473
0.942361492291596
0.938072100381434
0.94537735332764
0.937252701659858
0.932772127172479
0.941175611275919
0.941175611275919
0.944017388320147
0.936973869224199
0.934794505495132
0.939562932314055
0.938176848825277
0.941175611275919
0.928953966000261
0.936973869224199
0.941175611275919
0.941175611275919
0.941175611275919
0.941175611275919
0.941175611275919
0.942893038681591
0.949579095379359
0.957084550798716
0.950555754025941
0.953702207468583
0.941506680674211
0.94537735332764
0.940025143156052
0.942735778756574
0.943407486486196
0.941733001628661
0.95378083743108
0.949579095379359
0.948986017612235
0.937157247630537
0.941175611275919
0.946013373642878
0.942221330951945
0.946832772364454
0.941175611275919
0.943102535569249
0.948061870446815
0.956875053911042
0.956586927060862
0.94537735332764
0.949579095379359
0.949047823507965
0.957041608250618
0.956631908889829
0.96218432153452
0.951749164693906
0.946999326704026
0.949579095379359
0.961381746879709
0.9579825794828
0.9579825794828
0.9579825794828
0.9579825794828
0.955026759580225
0.950469594411199
0.95378083743108
0.9579825794828
0.96218432153452
0.958889902581406
0.973794300214056
0.96218432153452
0.954102612414849
0.962915795879078
0.965244889880895
0.960633448468386
0.968907830408916
0.95981404974681
0.97058780563796
0.964208464619392
0.97058780563796
0.9665787364071
0.970370779098031
0.982566305892404
0.975825972951184
0.967832188208531
0.972443629621038
0.964449844878387
0.960657802187454
0.965269243599963
0.960103941359268
0.970290384373259
0.96638606358624
0.96638606358624
0.963115998352182
0.969246429459512
0.96638606358624
0.964345096434543
0.959613847273709
0.962721358295877
0.962996190603853
0.97058780563796
0.974782018037437
0.962601550547557
0.97561647606351
0.981956404058497
0.98319303179312
0.96844209004245
0.999546887487845
1.07761561638895
1.23262119490027
1.57976173395753
1.90512447936756
1.79013398290739
1.17988723600635
0.965099630339323
0.930534957675485
0.905311210822837
0.91492473357629
0.972110324857223
1.01464795806907
1.02880052776587
1.03341196917838
1.04580369831811
1.04139998903101
1.04099028967022
1.04621916256892
1.04621916256892
1.05462264667236
1.05462264667236
1.0641522451766
1.0630261307758
1.0630261307758
1.0630261307758
1.07142961487924
1.07142961487924
1.07276169664318
1.08823658308612
1.08823658308612
1.09151770749698
1.09069830877541
1.10002064575743
1.105043551293
1.11344703539644
1.11764877744816
1.12523462759229
1.13322841233494
1.14962568118103
1.15352600184029
1.17156030336728
1.1890783923274
1.192782040038
1.20640157310114
1.22290535515329
1.2349943687416
1.24370103899976
1.25938542233034
1.27731497541352
1.28377647591908
1.29227188452735
1.29268158388814
1.28992020156868
1.27965383443316
1.26407596430865
1.23149268826637
1.1957126826658
1.1543162231593
1.11772964277619
1.08534480444478
1.05071303159856
1.02255381843471
1.0030663332364
0.990870806442025
0.982561011605628
0.962371700068608
0.962687710162355
0.969674717649343
0.963740488887391
0.96218432153452
0.9579825794828
0.9579825794828
0.96218432153452
0.958813037381177
0.96638606358624
0.96638606358624
0.96218432153452
0.96638606358624
0.956764540577219
0.960556583268148
0.96218432153452
0.9579825794828
0.959327485185764
0.973854341347506
0.965860556604861
0.962300129155103
0.974201764209274
0.97058780563796
0.971701096099741
0.967909053408809
0.964117010717874
0.96638606358624
0.96218432153452
0.961144366748517
0.956722068632373
0.954001393495504
0.95378083743108
0.94838141006506
0.952772295413145
0.956564338104072
0.949579095379359
0.949579095379359
0.949579095379359
0.948434392149519
0.94537735332764
0.95410614193935
0.9579825794828
0.95378083743108
0.94537735332764
0.941175611275919
0.95970577177847
0.9579825794828
0.955439988465555
0.9579825794828
0.95378083743108
0.95378083743108
0.95378083743108
0.949579095379359
0.95378083743108
0.950787839870415
0.95378083743108
0.94537735332764
0.94361345384936
0.946731553445128
0.94537735332764
0.94537735332764
0.937349175329525
0.945661950653322
0.942564204648861
0.94427335728038
0.942689306683965
0.943099006044753
0.941175611275919
0.939716662714607
0.942224860476443
0.936334319384465
0.932772127172479
0.932951976054319
0.941175611275919
0.936973869224199
0.932772127172479
0.928570385120759
0.936973869224199
0.930134082125914
0.932772127172479
0.932772127172479
0.936304671378624
0.932697026734481
0.93972121187954
0.933666626332064
0.92726618660038
0.927796438831387
0.930693982362724
0.924368643069039
0.934030873260645
0.936124822496777
0.932772127172479
0.937003517230044
0.941555662630923
0.936184118508459
0.936973869224199
0.928570385120759
0.941175611275919
0.943604159434835
0.936973869224199
0.932772127172479
0.933316222982904
0.932368937823591
0.924093340157878
0.920851903289266
0.924368643069039
0.924368643069039
0.932398585829386
0.926692442784138
0.921635143993152
0.924368643069039
0.932123282918221
0.928809530014229
0.928911494055397
0.932191873344371
0.924368643069039
0.928570385120759
0.928570385120759
0.924368643069039
0.920166901017319
0.926695227186812
0.931264941776284
0.924368643069039
0.932772127172479
0.952829826662535
0.942060816020983
0.929865289226617
0.936973869224199
0.947491656155087
0.935296129360718
0.920166901017319
0.923510301927096
0.932323485391378
0.928492500280028
0.927828871239801
0.928570385120759
0.930950696444873
0.922768788046234
0.915782525681079
0.91953013558025
0.920166901017319
0.915965158965599
0.924368643069039
0.920166901017319
0.924102634572402
0.928570385120759
0.93900479683949
0.927358856227046
0.922463837129251
0.926683148369617
0.914487621575245
0.968591349711931
1.05057322321134
1.24225385552006
1.62510098606859
1.90150075577875
1.55016423955934
1.04458346326386
0.893151567527516
0.855584328370034
0.832967488314526
0.863003702608573
0.93238482068387
0.959042142738299
0.979047801350356
0.986462351905345
0.98319303179312
0.980276899432737
0.981497722740992
0.98739477384484
0.985707739566833
0.98739477384484
0.998264728887166
1.0074876117122
1
1
1.00420174205172
1.01864698776354
1.0210087102586
1.0210087102586
1.01680696820688
1.02377287698071
1.03361393641376
1.04258010515667
1.04186443523853
1.05042090462064
1.05042090462064
1.05882438872408
1.072659732602
1.08634107156085
1.09243832513784
1.10653038309788
1.1113995582329
1.1273871277182
1.14731870553272
1.15561642155192
1.18375332027756
1.19553914771114
1.20870603886537
1.22152178154861
1.24150057655755
1.24631120080276
1.24908466193941
1.25553408362778
1.24333855683341
1.22694128798731
1.21054401914123
1.182408140056
1.14961360236383
1.10758586779171
