0.817826160995602
0.810393343087916
0.806198043612342
0.816868379952134
0.816549119604312
0.823981937511994
0.841082395762121
0.859868985659119
0.861784547746056
0.880845483036999
0.907658496583447
0.898494632075019
0.868124839748635
0.871267672602312
0.863745024786871
0.848609899248238
0.819058287433016
0.80774943039758
0.800316612489897
0.792883794582214
0.79069388710133
0.786817847973576
0.792384874418886
0.786817847973576
0.77906576971807
0.782941808845823
0.775189730590317
0.721852615903421
0.700357775679468
0.767877090532201
0.981938118953394
1.44224477504235
1.83517050289312
1.9428656370293
1.86981814109673
1.45953460444918
1.01068490335185
0.92395534133448
0.869725997158442
0.849657510199467
0.825129089712344
0.807659600489827
0.802322004484589
0.792793964674461
0.801359367770431
0.801184563625613
0.805379863101189
0.803319844811248
0.806377703427848
0.817686560463284
0.813950121867849
0.813172000639884
0.82060481854757
0.824535483970572
0.819966297851922
0.831509440998115
0.820200583962679
0.825578239251108
0.824715143786079
0.828910443261656
0.829678853148243
0.833330317506614
0.848006582165097
0.85365372717679
0.853762979767289
0.86684294268666
0.860956655893529
0.862472839066265
0.865885161643191
0.865760128122937
0.869122680075297
0.872090708784146
0.868214669656393
0.875867206662767
0.865076692473412
0.86433863052864
0.863331078860606
0.863011818512783
0.86433863052864
0.852765139440633
0.854995106204706
0.85791821995968
0.836253431261587
0.835939026584453
0.825263834573971
0.825578239251108
0.825578239251108
0.833973693872949
0.829454278378861
0.829484626320673
0.838807514044171
0.841082395762121
0.840479078678972
0.847517373343147
0.849832314344283
0.861141171379722
0.856586552273133
0.860382472834509
0.856307351208498
0.845556896302332
0.848834474017627
0.847597491909522
0.843402192433945
0.846958971213877
0.856586552273133
0.842234403633162
0.838249111914902
0.841082395762121
0.851902043975604
0.837291330871432
0.837440642745126
0.842189488679285
0.83420312431302
0.837206356634367
0.830112221757259
0.827408827100982
0.83505650843667
0.811481013322329
0.826665909485518
0.822470610009942
0.818724460073129
0.833460206697555
0.837206356634367
0.85556928926372
0.869042561508923
0.874819595711548
0.897233371613471
0.922479217444937
0.909079994177745
0.872090708784146
0.874355879160718
0.883718826167405
0.843476241411955
0.817301748561154
0.802322004484589
0.802322004484589
0.793786949330431
0.79069388710133
0.786817847973576
0.792829168286961
0.782941808845823
0.79069388710133
0.785296809130147
0.776491050335053
0.721567345250434
0.70885762722113
0.754615039962007
0.970568566034377
1.39628949372091
1.79775270456121
1.91536069040963
1.88373813504537
1.48525387817293
1.00629780488405
0.926772844251966
0.870284399287716
0.847666685216845
0.82892501027372
0.814004748163101
0.806198043612342
0.80162885749369
0.801309597145866
0.802440968416475
0.800671076450219
0.813885784231219
0.817826160995602
0.820434870073441
0.811970222144277
0.822959818831894
0.826197337264
0.821731334147486
0.833001345817414
0.832682085469591
0.837206356634367
0.834617070239285
0.839476382681628
0.850759747445943
0.844958434889874
0.84501913077349
0.860462591400886
0.860462591400886
0.872090708784146
0.868355484106386
0.880694957245628
0.88699154821201
0.885563981029349
0.89549746934204
0.891470904422912
0.883603503988532
0.887594865295159
0.887594865295159
0.880880686649496
0.883718826167405
0.891071525508714
0.88379894473378
0.876205889693348
0.872649110913416
0.875966747911899
0.870893785959229
0.855070369100392
0.85271051314538
0.838927691893734
0.842484470673664
0.837206356634367
0.84807091980173
0.837206356634367
0.84083232872162
0.844764208062304
0.845471922065268
0.851045018098945
0.848834474017627
0.856586552273133
0.854796023706446
0.854820302059891
0.861909581266305
0.860462591400886
0.857395021442906
0.871112291140248
0.875286954015383
0.864040006781251
0.857992268937687
0.86203825653957
0.854924698979709
0.86433863052864
0.858716977788075
0.866403504489274
0.848834474017627
0.86433863052864
0.863485246404991
0.85271051314538
0.848834474017627
0.856690949192952
0.852286855877737
0.854196348376311
0.867841996930991
0.908356499245037
0.901398323147235
0.910523342290154
0.948809091757799
0.949611491339209
0.924558658417636
0.903099021806171
0.918083621553423
0.887892275124876
0.85384674008668
0.837206356634367
0.823736726142181
0.829454278378861
0.813950121867849
0.810074082740095
0.805485473938688
0.804935569233116
0.80818765467729
0.805574089928763
0.802017311148833
0.782970942869957
0.706422508370433
0.729940949354175
0.889472795934252
1.21707397208397
1.65389132121324
1.86244237731969
1.89948264725551
1.68405960320591
1.13406142597921
0.976469419839526
0.890422079554016
0.860401895517269
0.837784181446398
0.819650679257117
0.810074082740095
0.810074082740095
0.812384168070543
0.806092432774847
0.802322004484589
0.805026613058544
0.812917077928694
0.806911827203673
0.817826160995602
0.82542771345974
0.817826160995602
0.827764504978982
0.833330317506614
0.839880617266515
0.822536161564249
0.842922694953374
0.84152547571252
0.839685176521266
0.848834474017627
0.854227910235794
0.852271074947996
0.864699164077328
0.868612834652914
0.879842787039652
0.879842787039652
0.893033216467204
0.885194950056959
0.893266288660289
0.881604181582206
0.895346943550665
0.887594865295159
0.882915212668323
0.880327140190915
0.876131840715338
0.887594865295159
0.875966747911899
0.861255279640918
0.863226681940785
0.856586552273133
0.854085881868127
0.841345815897015
0.837206356634367
0.832162528705832
0.831151335284783
0.811132618950371
0.821492192366041
0.814168627048866
0.825578239251108
0.821702200123355
0.822769233757334
0.831944023524814
0.833330317506614
0.83518154195692
0.841082395762121
0.837206356634367
0.830347721785698
0.848834474017627
0.844448589467493
0.841082395762121
0.841082395762121
0.856586552273133
0.845980553569975
0.841082395762121
0.851049873769632
0.848834474017627
0.844958434889874
0.84506161789202
0.844020076529161
0.841701493775009
0.838105869629566
0.875908479863626
0.895008260520087
0.892128847801313
0.911795528010754
0.943142524063358
0.937338783671939
0.916662123959125
0.906975060933924
0.904369993609101
0.865264849712629
0.833330317506614
0.820667942266521
0.806198043612342
0.806198043612342
0.799058993781362
0.800457426939891
0.782941808845823
0.794569926229083
0.786817847973576
0.780732478682181
0.77906576971807
0.758183957918626
0.690625797700392
0.722504489693507
0.900912756078338
1.26087090778401
1.67449514586569
1.86346935167048
1.87254702802416
1.58958039076845
1.06126156925186
0.930783628241362
0.860161539818147
0.835060150189682
0.814810789497523
0.797576800303444
0.790463242743584
0.77906576971807
0.77906576971807
0.782941808845823
0.781780089633402
0.790126987548351
0.788618087881644
0.782578847461798
0.797880279721538
0.800682001709273
0.793771168400687
0.798925462837408
0.810394557005593
0.814109145082924
0.809117515614299
0.817140297510736
0.821702200123355
0.829454278378861
0.827698953424673
0.840809264285851
0.848834474017627
0.860849831138355
0.862651284964098
0.86433863052864
0.87229586087077
0.875966747911899
0.879409418430629
0.887594865295159
0.880914676344319
0.886203715642669
0.875966747911899
0.868397971224912
0.873617817215939
0.874758899827929
0.867326081920246
0.859323936624239
0.859962457319886
0.833399510813938
0.83991703479668
0.8364986426314
0.832303343155824
0.812766552137324
0.804532548565905
0.810074082740095
0.80074998109892
0.79582268926693
0.810074082740095
0.799060207699036
0.806198043612342
0.802322004484589
0.802665543185858
0.813950121867849
0.82072014072644
0.81779824088914
0.818461039938233
0.823638398810725
0.833330317506614
0.837206356634367
0.829454278378861
0.833330317506614
0.826937827044127
0.841082395762121
0.844361187395089
0.837824240729583
0.835204606392691
0.842338800552983
0.851859556857082
0.883805014322142
0.895346943550665
0.898032129441862
0.931471919561562
0.949611491339209
0.944196204602936
0.899222982678418
0.910343682474645
0.911424069203017
0.860155470229789
0.83211882766963
0.827108989435916
0.823728228718476
0.798445965356836
0.804810535712868
0.792830382204634
0.78281070573722
0.809644355884089
0.806418976628707
0.798654759196477
0.795097980416547
0.734968996352947
0.713173104546266
0.78927238950704
1.01662338860489
1.41291045449041
1.81042843289569
1.93193916406064
1.85781856490577
1.43561799846904
0.998912329765592
0.919750330517514
0.877416165612656
0.848970432796923
0.82894321903881
0.817826160995602
0.805842365734347
0.800242563511887
0.808596744932868
0.801163927025185
0.813111304756267
0.810074082740095
0.814150418283785
0.810193046671982
0.806198043612342
0.824820754623574
0.815026866843206
0.819994217958388
0.833330317506614
0.831488804397687
0.831808064745511
0.838409349047647
0.847067009886714
0.841646867479757
0.856586552273133
0.864190532572619
0.869001288308061
0.866476339549615
0.878030407954859
0.890119814053608
0.892006242116409
0.903099021806171
0.913159971474452
0.900603207071858
0.897204237589337
0.894737556879153
0.88730473897147
0.887623999319292
0.89181929879487
0.892138559142693
0.866312460663851
0.877230436208795
0.86433863052864
0.856586552273133
0.848834474017627
0.837206356634367
0.840108833788909
0.837206356634367
0.817826160995602
0.821670638263874
0.813950121867849
0.810074082740095
0.804206004712047
0.81917967920025
0.81165460354947
0.821778676936714
0.823921241628374
0.807535780887252
0.824559762324022
0.834029534085878
0.830214190841742
0.829575670146096
0.848058780625007
0.845536259701904
0.839000526954076
0.847618128509953
0.842618001617618
0.841082395762121
0.836734142659833
0.847451821788842
0.84389504300891
0.834818580572894
0.829879149564177
0.848728863180135
0.852283214124719
0.871024889067837
0.891938262726762
0.888766295848956
0.912640414710696
0.944181637590877
0.92886685223674
0.907995965696355
0.88648655846032
0.899222982678418
0.847894901739243
0.817675635204234
0.806366778168794
0.799421955165388
0.789886631849231
0.788440855901486
0.788263623921322
0.773424694294747
0.769229394819173
0.772244766317239
0.77906576971807
0.774895962513613
0.713446236022549
0.698450711016239
0.781703612820065
1.01649835508468
1.46487705612523
1.84570002478291
1.92712112481916
1.81823392352871
1.34064957720948
0.976232705893428
0.889074630937732
0.853071046694063
0.820582968029462
0.798445965356836
0.786896752622277
0.786419682977052
0.782224383501476
0.771313691462564
0.77906576971807
0.770788065110444
0.77906576971807
0.77906576971807
0.784184860542289
0.790513013368158
0.780274831719713
0.802036733831591
0.794535936534258
0.794569926229083
0.80552553322187
0.808090541263508
0.804887012526226
0.810074082740095
0.815876609213838
0.812342894869681
0.822990166773699
0.832360397286425
0.837206356634367
0.848504288410753
0.848856324535726
0.860154256312117
0.85595895683654
0.865285486313056
0.870824592651905
0.849714564330069
0.854748680917229
0.854362655097423
0.841082395762121
0.848834474017627
0.829454278378861
0.835330853830617
0.841082395762121
0.821965620258249
0.813950121867849
0.808903866103964
0.800888367713565
0.803117120559967
0.783098404225553
0.785120791067658
0.783199159392357
0.778007233507797
0.773711178865418
0.771733706977192
0.790794642268136
0.783378819207859
0.787355613502418
0.783798834722489
0.793393640004594
0.792189433673641
0.800507197564455
0.806198043612342
0.811496794252066
0.798445965356836
0.801537813668261
0.814415052336353
0.809928412619415
0.802322004484589
0.807183744762273
0.8015098935618
0.794569926229083
0.806198043612342
0.810074082740095
0.794569926229083
0.79362914003303
0.806198043612342
0.780723981258477
0.79069388710133
0.794569926229083
0.794441250955816
0.805750107991252
0.835671964696539
0.862165717895167
0.856245441407206
0.886722058488754
0.895346943550665
0.871429123652722
0.853006709057426
0.857460572997213
0.827789997250094
0.789751886987602
0.759769334398695
0.763964633874272
0.745625979598368
0.740305378440539
0.742820615857609
0.741985440499043
0.751933495823798
0.729473591050331
0.744181417568292
0.728677261057279
0.705099338107588
0.647841269339079
0.681970564696665
0.842030465464184
1.17833543132443
1.61629264914814
1.84358902195072
1.83134909006059
1.58212693626031
1.04789876351477
0.892834133968925
0.819774498859693
0.793925335945075
0.778089779909518
0.759673434902583
0.744181417568292
0.738326692634636
0.734525916402572
0.74812058041501
0.732553300185032
0.742214870939114
0.749704742977399
0.742853391634761
0.747048691110337
0.748057456696045
0.74529215223847
0.744181417568292
0.755541259145966
0.755221998798145
0.75490273845032
0.764787670056112
0.771313691462564
0.781077231301125
0.781249607610594
0.781568867958417
0.788925209052742
0.788286688357092
0.791524206789202
0.794857624717427
0.806421404464051
0.811159325139158
0.807921806707054
0.811587838077495
0.811574484983095
0.812130459277025
0.804460927423237
0.794569926229083
0.801223408991131
0.803101339630224
0.805277894016713
0.79069388710133
0.790515441203496
0.787813260464883
0.776006697183793
0.772449918403865
0.77034862691306
0.769212399971759
0.762091558905865
0.749520227491203
0.750789985376462
0.754985284852038
0.745191397071671
0.755995264355418
0.759685574079304
0.76310882191528
0.751933495823798
0.771313691462564
0.774134836133059
0.779482143479678
0.780892715814927
0.786817847973576
0.77637815599153
0.781673264878234
0.790143982395765
0.786587203615831
0.779154385708148
0.790286010763429
0.783668945531549
0.788910642040675
0.784307466227196
0.782941808845823
0.782809491819538
0.792246487804241
0.77378037217274
0.782027728838558
0.774594910930872
0.767437652334811
0.775146029554115
0.770950730078538
0.759685574079304
0.77031220938289
0.764796167479816
0.755213501374436
0.759685574079304
0.758088058422516
0.757087790260517
0.772272686423707
0.779028138270241
0.810715031271091
0.813951335785521
0.832058131786013
0.857223859051107
0.861419158526683
0.835881972453853
0.817140297510736
0.827539930209594
0.787409025880003
0.758362403816461
0.757677754249267
0.737113988879981
0.732553300185032
0.736383210441236
0.721198314278046
0.71495028001856
0.713173104546266
0.720741881233257
0.720925182801773
0.720925182801773
0.674229411700202
0.640896446335675
0.710254846461982
0.914315621098556
1.33078164045119
1.72691332487462
1.84383544723819
1.79281448747012
1.42104613073044
0.965579364401079
0.859145490726407
0.805744038402888
0.783353326936739
0.75827257390871
0.744181417568292
0.749606415645939
0.732553300185032
0.740577295999139
0.744548020705337
0.739802816524193
0.745003239832462
0.748057456696045
0.750473152863985
0.754029931643915
0.75371067129609
0.751933495823798
0.759225499281493
0.756628929380375
0.76693751825381
0.771132817729388
0.755809534951551
0.771313691462564
0.770536784152274
0.786817847973576
0.787863031089454
0.788959198747569
0.794338067953671
0.806198043612342
0.80501447388182
0.813085812485149
0.810619131774971
0.814401699241953
0.82567171091188
0.821702200123355
0.814682114224264
0.810074082740095
0.816455647943541
0.808384309340211
0.813808093500187
0.808526337707873
0.807426528296742
0.805049677494312
0.808894154762593
0.801780597202734
0.802224891070805
0.795673377393228
0.79069388710133
0.785811510223214
0.789368289003146
0.780710628164077
0.775189730590317
0.792977266242985
0.791967286739604
0.796537686775933
0.791963644986591
0.802953241674201
0.802322004484589
0.813627219767009
0.810074082740095
0.80911265994361
0.820421516979047
0.80459810012021
0.819782996283398
0.812748343372242
0.815268436459998
0.811073136984424
0.816466573202589
0.810074082740095
0.810115355940954
0.821702200123355
0.815144616857418
0.807114551454952
0.811478585486986
0.813950121867849
0.806070582256745
0.808391592846245
0.812800541832153
0.812162021136504
0.801597295634208
0.805792595109784
0.806111855457605
0.805964971419258
0.825578239251108
0.835463170856902
0.855395699036577
0.867560368031002
0.885982782626298
0.904826426653897
0.91684663944532
0.89038202027083
0.887594865295159
0.875516384455463
0.844827331781262
0.810826711696939
0.813442704280816
0.800099321226551
0.786379623693866
0.789748245234582
0.786817847973576
0.782941808845823
0.785847927753382
0.793436127123124
0.78375634760396
0.782446530435511
0.735197212875362
0.697382463464582
0.757549078976012
0.950229375434439
1.37184119180008
1.78402329568709
1.9236881656418
1.88385224330662
1.52764752504369
1.04399601819828
0.943595315355125
0.878762400311278
0.856365619256769
0.849129456011998
0.821284612444073
0.817089312968497
0.812186299489954
0.810074082740095
0.80837945366952
0.813950121867849
0.813159861463165
0.808645301639766
0.813950121867849
0.829454278378861
0.829188430408621
0.829400866001278
0.840337050311311
0.840390462688891
0.837206356634367
0.854040966914257
0.850484188134326
0.848834474017627
0.856586552273133
0.855247601080555
0.86433863052864
0.872720732056086
0.876277510836016
0.872107703631562
0.890487631108323
0.883718826167405
0.886628586827982
0.899222982678418
0.893742144387843
0.901119122082599
0.889227584564442
0.886345744010333
0.891470904422912
0.880517725265467
0.884074504045397
0.883682408637235
0.887594865295159
0.884320929332882
0.87005739668299
0.870850084923024
0.86121886211075
0.868214669656393
0.862660996305476
0.861820965276225
0.849873587545142
0.848834474017627
0.839209320793703
0.848834474017627
0.841320323625901
0.852153324933781
0.86433863052864
0.8658232518419
0.858947622145817
0.860462591400886
0.866061179705679
0.868214669656393
0.874882719430508
0.865868166795774
0.875521240126157
0.879716539601733
0.864531643438538
0.864850903786363
0.867383136050846
0.862764179307621
0.871154778258777
0.867917259826671
0.86433863052864
0.872090708784146
0.872090708784146
0.86433863052864
0.867233824177148
0.868043507264595
0.860462591400886
0.863871272224793
0.886021627991821
0.90476330293494
0.918603178317184
0.91298273949429
0.951423870424
0.970484805714941
0.951139813688676
0.936274177873308
0.923014555138434
0.910202868024654
0.895346943550665
0.849679360717564
0.859720887703093
0.837206356634367
0.838321946975241
0.829454278378861
0.835349062595701
0.833330317506614
0.829454278378861
0.832430804511417
0.823442958065473
0.828671301480212
0.760209986513717
0.754299421367179
0.815823196836278
1.03172331053102
1.49551997992785
1.86950495033729
1.96879491851027
1.89629732728331
1.43952195770329
1.04273475773675
0.949736524859446
0.902793114552743
0.879882846322831
0.861127818285322
0.844306561099833
0.842053529899985
0.837206356634367
0.841082395762121
0.837224565399455
0.837206356634367
0.846217267516082
0.843061081568022
0.848834474017627
0.856235730065828
0.860431029541406
0.852422814657039
0.860462591400886
0.86433863052864
0.866969190124581
0.87671330728038
0.872198747456984
0.875436265889088
0.882365307962755
0.890436646566083
0.890040909404904
0.903494758967352
0.910927576875033
0.911336667130609
0.925231168808112
0.928468687240217
0.925154691994754
0.919439567593415
0.939822459229534
0.942300065198756
0.92635525657269
0.920761523938591
0.928711470774682
0.925914604457634
0.907217844468393
0.914727139189431
0.918603178317184
0.906138671657688
0.906975060933924
0.892397123606899
0.889101337126521
0.883718826167405
0.866771321543989
0.868214669656393
0.865948285362152
0.86724353551853
0.856752858994241
0.856739505899847
0.857058766247671
0.859671117078525
0.861573326071071
0.86433863052864
0.872090708784146
0.881650310453754
0.878354523973373
0.873259711502601
0.876816490282531
0.883188344144597
0.879842787039652
0.887378787949482
0.886312968233175
0.893107265445209
0.880908606755958
0.881227867103782
0.875966747911899
0.868214669656393
0.868214669656393
0.872090708784146
0.860462591400886
0.861613385354254
0.852966649774242
0.852836760583309
0.856968936339919
0.859760946986279
0.857607457035564
0.86433863052864
0.862679205070562
0.864419963012682
0.859742738221194
0.873250000161221
0.907914633212308
0.910851100061677
0.919205281482655
0.957290734534371
0.961577077835376
0.946392181672186
0.918631098423651
0.922479217444937
0.907295535199414
0.868197674808983
0.84207538041809
0.854014260725462
0.839113421297602
0.837206356634367
0.832638384433386
0.821728906312147
0.810951745217192
0.830066092885716
0.826509314105784
0.820326831400603
0.800848308430378
0.744083090236836
0.745309147085887
0.873110399628896
1.18949497648613
1.661560853067
1.93917411338773
1.9878170084357
1.80415976203565
1.21552865488696
0.999668600475448
0.923424859311685
0.891470904422912
0.873934649728416
0.858749753565228
0.839688818274286
0.831181683226582
0.829454278378861
0.837206356634367
0.840849323569031
0.836800908131814
0.841082395762121
0.851869268198455
0.842637424300377
0.85271051314538
0.850911487154983
0.854468265934919
0.854149005587094
0.861581823494778
0.862738687036506
0.857547975069622
0.872413610884992
0.868372478953794
0.874535538976225
0.875966747911899
0.877082338252772
0.883290313229069
0.893592832514146
0.89769101857593
0.909367692666086
0.906975060933924
0.920789444045049
0.921953591092817
0.918396812312887
0.910851100061677
0.921614908062238
0.910851100061677
0.915797814576429
0.909461164326859
0.919060825279657
0.911031973794853
0.896875265900131
0.898013920676776
0.895346943550665
0.890900363116915
0.883718826167405
0.883786805557055
0.871703469046672
0.868214669656393
0.867188909223274
0.857931573054077
0.861579395659432
0.864247586703211
0.86433863052864
0.866846584439677
0.872090708784146
0.875966747911899
0.875966747911899
0.875943683476125
0.883376501383809
0.891470904422912
0.887594865295159
0.895346943550665
0.895984250328636
0.88759607921283
0.893089056680128
0.894068688241699
0.897263719555276
0.886934494081411
0.902075689208398
0.883762527203604
0.88789227512488
0.88433549634495
0.88171464809039
0.881097977912844
0.89074376773719
0.874073036343062
0.885931798084065
0.881031212440867
0.882916426585996
0.888300151462782
0.903871073445771
0.934307631244131
0.934864819455736
0.941287657860034
0.971976710534236
0.983285567569671
0.961952178396133
0.93798337395595
0.941859413083703
0.922189091121245
0.888262520014942
0.889220301058412
0.860893532174561
0.86023923054918
0.856586552273133
0.849361314287421
0.848834474017627
0.848834474017627
0.848834474017627
0.850638355678708
0.84708157689878
0.832905446321297
0.765790366053455
0.758989999253052
0.885008006735386
1.16596439632559
1.64144259548338
1.94724059632033
1.99761453796909
1.83198639683864
1.28760380276401
1.0401612522714
0.944498470103343
0.921919601397994
0.88255953479033
0.874286685853398
0.872090708784146
0.841485416429332
0.852828263159599
0.856586552273133
0.857342822983
0.858311529285518
0.85271051314538
0.86650061790306
0.862305318427485
0.862815163849865
0.874499121446047
0.86909961563952
0.879842787039652
0.887348440007678
0.883645991107061
0.884895112391906
0.896769655062633
0.895346943550665
0.908151347158413
0.906975060933924
0.901009869492088
0.925615980710239
0.917354057032358
0.919533039254186
0.930841896289623
0.934107334828196
0.93801129406241
0.941859413083703
0.94319229468792
0.942845114233635
0.949572645973691
0.935731556673775
0.939926856149355
0.93798337395595
0.92893725946174
0.92635525657269
0.919258693860238
0.918603178317184
0.914727139189431
0.914727139189431
0.893335481967612
0.895346943550665
0.886334818751277
0.88529813305911
0.874068180672372
0.879842787039652
0.882379874974827
0.865358321373394
0.874192000274952
0.890327393975571
0.872090708784146
0.886822813655559
0.887018254400802
0.898327111436236
0.890255772832907
0.895346943550665
0.903099021806171
0.891001118283715
0.905591194787471
0.904163627604806
0.903099021806171
0.903951192012148
0.910637450551343
0.895559379143323
0.899222982678418
0.894495987262359
0.900393199314548
0.890573819263064
0.897155680882443
0.889722862974754
0.891470904422912
0.891470904422912
0.899222982678418
0.892412904536639
0.891167425004827
0.89113586314535
0.902612240819565
0.935565249952662
0.935732770591441
0.955461360602158
0.969688475721897
0.986578926214705
0.963641951796009
0.952333094760575
0.950446666697773
0.928683550668221
0.89863301868967
0.891470904422912
0.880284653072383
0.86433863052864
0.865419017257017
0.853787258120734
0.850553381441644
0.856586552273133
0.846477045897962
0.846157785550138
0.856586552273133
0.842715115031409
0.766471373867646
0.775034349128256
0.878161511063453
1.12407573920654
1.57874738946049
1.90469763757591
1.96336992043265
1.85582652600543
1.36056511054178
1.04029114146234
0.954588553795766
0.908428120387712
0.899222982678418
0.872156260338443
0.854118657645269
0.859119998455294
0.861453148221505
0.857842957064003
0.84821658992241
0.860462591400886
0.861121748696963
0.859173410832871
0.863372352061461
0.877918727529004
0.883718826167405
0.883694547813948
0.883411704996307
0.887594865295159
0.889579620689422
0.888859767509727
0.899222982678418
0.89344352064045
0.901445665936456
0.905767212849955
0.913712304015362
0.920689902795937
0.919355807274033
0.934107334828196
0.930231295700443
0.93798337395595
0.944834725298588
0.957579646940395
0.953487530466962
0.951469999295547
0.957843067075291
0.94074139490748
0.939043124083897
0.949611491339209
0.949190261906907
0.922479217444937
0.934107334828196
0.925282153350348
0.911706912020668
0.904274094112985
0.907862434752396
0.897409389675954
0.889727718645442
0.890046978993265
0.877071412993723
0.872876113518147
0.884184970553584
0.879842787039652
0.868731798584805
0.874491837940017
0.883718826167405
0.882588668814465
0.890998690448373
0.895346943550665
0.897135044282011
0.903099021806171
0.900799861734769
0.904759661181927
0.910851100061677
0.90348261979063
0.910723638706084
0.896240386957499
0.910851100061677
0.905269506604298
0.906975060933924
0.906546547995592
0.906765053176611
0.912364855399075
0.916214188338035
0.892346139064663
0.904210970394029
0.918129750424971
0.906975060933924
0.91004748656259
0.931944133536106
0.949611491339209
0.963756060057211
0.967831181683227
1.0018779306391
1
0.980619804361234
0.970107277318842
0.971665947610116
0.952079385967064
0.907087955277454
0.892184688014243
0.888271017438647
0.874971335420588
0.874720054462414
0.868214669656393
0.877919941446679
0.863403913920951
0.854017902478477
0.868214669656393
0.867568865454713
0.854627289149995
0.775197014096351
0.787129824815365
0.914904371169596
1.18371672836595
1.63520184473004
1.94447650578045
1.99041722008984
1.83196576023817
1.31616000208799
1.04146257201614
0.955291412128047
0.940002119045036
0.910798901601767
0.892005028198743
0.887594865295159
0.877777913079021
0.877393101176885
0.885262929446612
0.87224002065784
0.879842787039652
0.881216941844727
0.886539970837903
0.885190094386271
0.906558687172317
0.895444056964449
0.903099021806171
0.910309692779816
0.902238354176487
0.913547211211924
0.918603178317184
0.922479217444937
0.916465469296205
0.92286038759405
0.928554875394948
0.94263996214701
0.945735452211456
0.961239608722468
0.965292879830383
0.964122663194246
0.976743765233481
0.987236869593111
0.986917609245284
0.984495843488987
0.986279088549639
0.981135719371967
0.978330355631218
0.973693190122913
0.965115647850222
0.968617800334905
0.965115647850222
0.957815146968823
0.93798337395595
0.947915648350969
0.93798337395595
0.916455757954833
0.918383459218487
0.909342200394972
0.903099021806171
