0.836427137745883
0.832709572694653
0.832709572694653
0.830673403746759
0.821202104696617
0.758844196877271
0.764112005669072
0.89230100959137
1.18690105852076
1.62191278171894
1.85595519999504
1.88405300854581
1.70346897772129
1.14661547755542
0.993387639991411
0.938259169751098
0.909359347393096
0.893237004089497
0.877320353309412
0.864056949047488
0.860619616680172
0.856565206742437
0.862450093104492
0.862450093104492
0.860321456038415
0.866167658155722
0.866167658155722
0.869754070843871
0.869885223206952
0.877320353309412
0.882009768775391
0.888434364218205
0.890658297731769
0.894003161980855
0.898000959715939
0.900970294833685
0.910778438770482
0.913711917972633
0.922434987089396
0.933083829077861
0.936801394129091
0.944236524231551
0.946719934141975
0.959106784436471
0.962824349487701
0.959908798243347
0.97223903633536
0.97769460969262
0.971678570967546
0.97397704464139
0.970259479590161
0.969681086264549
0.962526188845943
0.966506058623336
0.948216394008838
0.933626366487878
0.919859109060683
0.905549314223683
0.892190613514332
0.879374450214998
0.871828924036451
0.860226159591034
0.860023295396657
0.857799361883305
0.861144226132285
0.846834431295285
0.855199899238612
0.858920292618933
0.866167658155722
0.861701863171008
0.872574325640815
0.873602788258182
0.869885223206952
0.87173362758907
0.879469746662439
0.881037918360642
0.881037918360642
0.881765392007132
0.884755483411872
0.877487361588088
0.877433577714696
0.888473048463102
0.88171160813374
0.881037918360642
0.89839158847588
0.912981615996946
0.925648698975401
0.929366264026631
0.952041526806969
0.97397704464139
0.961220321873902
0.939475396934276
0.932842280638792
0.925687383220193
0.896227095494313
0.871083522432163
0.867047040452288
0.858732528053263
0.849019680563952
0.851297397950803
0.840144702797113
0.84614281356439
0.841301489448336
0.843862267848343
0.844458589131752
0.846631567100908
0.795318786688784
0.772984155106715
0.823221303669016
1.00540370544984
1.40843213439981
1.78669247380378
1.88770547640718
1.84688488503827
1.45219359512081
1.04963042632596
0.971988044926089
0.935459671241289
0.91038781001054
0.895687386413387
0.877660026525157
0.866167658155722
0.873602788258182
0.863460627764062
0.860023295396763
0.868314223179553
0.875469120598098
0.867753757811723
0.876014486337311
0.888473048463102
0.881037918360642
0.884755483411872
0.895908178565562
0.899530447169409
0.895532649434222
0.902031785037596
0.903343308668022
0.910778438770482
0.918213568872941
0.927589571475758
0.929366264026631
0.939138552047794
0.947954089282781
0.948774031047479
0.963364058568521
0.970518955987028
0.981391418456856
0.984527761853173
0.98884730484631
0.98884730484631
0.995140747926148
0.991142950190959
0.99256486989754
0.99256486989754
0.98141217474385
0.97162761542335
0.955389219385241
0.936801394129091
0.925314682418049
0.910670871023696
0.907060873719252
0.892190613514332
0.884755483411872
0.881037918360642
0.878667732855502
0.869885223206952
0.867977378293049
0.869885223206952
0.869885223206952
0.871823267378058
0.880349128958944
0.873602788258182
0.881166242394527
0.895756269915487
0.891758472180403
0.88989779649888
0.894915571863819
0.895908178565562
0.892190613514332
0.894074873812045
0.904947336281881
0.897231973495461
0.902299746421977
0.895908178565562
0.895425081687331
0.895908178565562
0.892267982003917
0.896265779739104
0.898987909759377
0.892190613514332
0.898427444391547
0.90410380990091
0.918413604738022
0.942197526954566
0.945634859321876
0.961342989249334
0.98141217474385
0.969144205512926
0.951394249979345
0.944236524231551
0.941085081206634
0.905596483456063
0.877320353309412
0.874726547323007
0.873602788258182
0.864134317537131
0.86069698516986
0.86020540330404
0.864975015588904
0.857820118170299
0.855014963002033
0.851297397950803
0.843647132354773
0.793067482247108
0.78761003854327
0.870272111273951
1.09225229846189
1.53313855268801
1.85159040373423
1.90872671401228
1.79806869820098
1.31955006391116
1.03671518026795
0.961410914768708
0.939665989829248
0.921346125957442
0.896042159257839
0.888473048463102
0.882426810480826
0.875552145746073
0.873602788258182
0.872067644146423
0.888473048463102
0.888473048463102
0.887438929187265
0.893252103718174
0.895908178565562
0.90012676845282
0.903784892972159
0.910837879302269
0.910778438770482
0.918213568872941
0.922831272507731
0.923111505191618
0.929366264026631
0.942495687596275
0.944561097818695
0.949370352330904
0.962514875529158
0.966541914538931
0.967117479535345
0.99256486989754
0.99628243494877
1
1
1.00660953167929
1.01115269515369
1.00743513010246
1.01858782525615
1.01681678936367
1.00594432689388
1
0.999069662159238
0.98382952948144
0.966541914538931
0.958927504858491
0.937182579918824
0.929366264026631
0.922682192186851
0.911809729717122
0.912089962400976
0.907060873719252
0.90521529766633
0.908626217088213
0.912063549455589
0.914496003821712
0.913771358504418
0.914051591188377
0.918213568872941
0.921931133924171
0.929762549444965
0.928689745924337
0.931279765598928
0.936801394129091
0.933083829077861
0.938598842967013
0.936801394129091
0.934443479923355
0.933083829077861
0.941318144658001
0.944236524231551
0.936801394129091
0.944195011657562
0.943593033715656
0.936801394129091
0.93591918350333
0.939356515870672
0.930808940020207
0.93108917270411
0.932795111406312
0.933083829077861
0.924494740653375
0.926522424613574
0.932490336123649
0.936801394129091
0.929432319199428
0.958365169144083
0.97769460969262
0.97769460969262
0.993018725501083
1.01252083098681
1.0090834986195
0.985269377145754
0.98512973979508
0.980183676261403
0.957210252839353
0.925648698975401
0.925260898544656
0.918106001126153
0.90368863854216
0.906607976098223
0.903343308668022
0.903343308668022
0.907060873719252
0.903343308668022
0.903343308668022
0.903343308668022
0.871916647860304
0.837449943704828
0.875078537456816
1.05383875211521
1.4310867321313
1.81100675336553
1.95465750324502
1.9348939597792
1.60367480253583
1.14328279337126
1.04467209149312
1.0071180835205
0.987189493359059
0.971221887034807
0.958009438317033
0.943419410796073
0.941055839931945
0.940262311112657
0.936824978745281
0.943932706931401
0.944236524231551
0.947954089282781
0.944236524231551
0.947954089282781
0.950274277226345
0.968274266186569
0.964276468451484
0.962824349487701
0.962824349487701
0.966541914538931
0.977363421464464
0.981361219199654
0.984671185515751
0.991545850250304
0.995492692441276
0.998930024808568
1.00608492222714
1.01115269515369
1.02230539030738
1.02974052040984
1.03345808546107
1.04461078061476
1.04832834566599
1.04873407405453
1.05948104081968
1.05235538467576
1.05161094105399
1.05204591071722
1.05031921572808
1.04461078061476
1.03285232120756
1.02226009142158
1.00211636576667
0.991243903296837
0.98141217474385
0.961303347021923
0.94843435783171
0.944036488366476
0.944236524231551
0.9334442585806
0.93744205631579
0.936801394129091
0.934284956632374
0.939037598941954
0.944236524231551
0.93847713357414
0.940518959180321
0.939403685103086
0.941354000573596
0.955389219385241
0.947954089282781
0.951671654334011
0.958820895094118
0.951671654334011
0.958260429726304
0.959106784436471
0.95769996435849
0.947954089282781
0.949704368888216
0.953141701255592
0.946764275045159
0.950762072780243
0.947324740412973
0.947954089282781
0.940587842682315
0.940941657544054
0.933575410943681
0.933855643627557
0.937853441362725
0.934416108995387
0.927753751425183
0.933083829077861
0.930910851108599
0.925648698975401
0.922915255638326
0.921931133924171
0.929366264026631
0.918356992535326
0.925648698975401
0.922348175629605
0.924951424586113
0.924671191902232
0.92810852426953
0.961286377046701
0.949853449209095
0.968161041781331
0.986468634353581
1.00105866187457
0.996886283237257
0.96976128308342
0.970259479590161
0.962886618348788
0.945264028866375
0.929366264026631
0.921931133924171
0.914496003821712
0.908524305999821
0.90880453868378
0.907060873719252
0.904756743386908
0.910778438770482
0.907060873719252
0.906488137052032
0.906475865752734
0.851248312753184
0.847043910130463
0.939731178256645
1.16268230349515
1.57126917487647
1.89417829030135
1.96603573484521
1.86977236374744
1.41483186791405
1.10428049836438
1.02603048236358
0.998705446344789
0.9810451306001
0.96273753802791
0.948147510506849
0.944710178139574
0.938309167312886
0.937835513404928
0.943147663099778
0.94635950463913
0.944236524231551
0.951079119362313
0.9503893719781
0.947954089282781
0.956111036373338
0.955389219385241
0.955389219385241
0.959106784436471
0.959505898184013
0.966541914538931
0.970259479590161
0.97397704464139
0.976174565209419
0.990764592730422
0.99256486989754
0.993921692413838
1
1.00451392219971
1.01910394972069
1.02277717386872
1.04084887466024
1.03685107692516
1.04461078061476
1.05204591071722
1.04832834566599
1.05349141503999
1.05204591071722
1.06148701051026
1.05061454804053
1.04717721567316
1.0325871881522
1.01740649600612
0.999689568058943
0.988817105589108
0.974227078068148
0.960167316657693
0.947954089282781
0.947954089282781
0.940518959180321
0.934735025924101
0.934869964598892
0.931577926240685
0.926874369128619
0.936801394129091
0.936136189343688
0.93346880117941
0.93690613354668
0.940518959180321
0.940974685130546
0.938273311397251
0.946937897964742
0.949250513284674
0.951671654334011
0.949814764964304
0.949534532280343
0.950371444020302
0.94897406691253
0.947214344336886
0.951671654334011
0.951671654334011
0.951671654334011
0.948335275072525
0.941841796127707
0.939577308022747
0.936801394129091
0.936801394129091
0.933083829077861
0.927303682133398
0.93033432812967
0.928271746236464
0.925648698975401
0.929366264026631
0.921931133924171
0.918239981818434
0.921931133924171
0.918213568872941
0.911645549767642
0.910778438770482
0.909916026449199
0.912486247819416
0.918213568872941
0.907879857501518
0.905891815768624
0.903343308668022
0.903951901250835
0.900282463414518
0.903295181453022
0.899625743616792
0.903343308668022
0.900418314453566
0.903343308668022
0.905707837514664
0.911229466044828
0.923735197402999
0.93241392561658
0.951671654334011
0.961033515290792
0.98512973979508
0.973171244522699
0.947708754532007
0.951356523717075
0.948391887275208
0.930084294702913
0.911776702130723
0.907060873719252
0.904902037396077
0.897786782204883
0.894309807610201
0.895908178565562
0.898587838029245
0.889230721366794
0.895908178565562
0.895908178565562
0.884921533708036
0.826000958256084
0.843218777332448
0.976861575501345
1.26280757567115
1.67148020929159
1.91294530389923
1.94835083088327
1.77005277434179
1.23505176686427
1.06025846640951
0.999448019619865
0.984042749010021
0.962841319463091
0.9445252419031
0.936232443773672
0.929366264026631
0.919342984596191
0.910778438770482
0.923958817884322
0.918213568872941
0.921148006057582
0.920744148015746
0.925648698975401
0.925648698975401
0.925648698975401
0.936801394129091
0.937015571640253
0.936801394129091
0.943461881352575
0.947954089282781
0.944236524231551
0.953773878454596
0.962750767309722
0.968083673291703
0.971521005658972
0.978675903077578
0.98884730484631
0.996703262965914
1.00014059533318
1.01129233250436
1.01529013023955
1.0216052875889
1.02974052040984
1.03345808546107
1.03345808546107
1.04278974716065
1.03879194942546
1.03345808546107
1.02974052040984
1.02230539030738
1.01387952384986
0.98884730484631
0.974107239021959
0.956425209007685
0.947954089282781
0.933989624319839
0.925489217701904
0.920464873314406
0.906836295255473
0.907060873719252
0.901932702278331
0.902212934962186
0.895908178565562
0.90277340033
0.906771198065189
0.90707031668946
0.91050764905673
0.907060873719252
0.912440948933613
0.918213568872941
0.916821848423562
0.914496003821712
0.914309197238556
0.91969871542306
0.924443785109178
0.920081771559593
0.92629314747381
0.921931133924171
0.925648698975401
0.921931133924171
0.918213568872941
0.925648698975401
0.922968081529204
0.918213568872941
0.916093416794559
0.912618358164905
0.910778438770482
0.914496003821712
0.913496782478956
0.907779862378047
0.907060873719252
0.907060873719252
0.907060873719252
0.910778438770482
0.900307918377479
0.907060873719252
0.899625743616792
0.907060873719252
0.906949519660651
0.897542405436517
0.897262172752662
0.899625743616792
0.895908178565562
0.892190613514332
0.895908178565562
0.892190613514332
0.892190613514332
0.895908178565562
0.895908178565562
0.891022513546218
0.898177410964823
0.89763674390149
0.891890582525997
0.892190613514332
0.889621350126735
0.899625743616792
0.897083851157201
0.918213568872941
0.921985875780183
0.933336690833814
0.951671654334011
0.975254628321314
0.983599294359157
0.950701674265946
0.948363603983045
0.946170782090948
0.930077680062027
0.913273161997692
0.908893220490307
0.904005685124229
0.906296586174736
0.899625743616792
0.892368935109899
0.899625743616792
0.892929400477715
0.896927198212798
0.900924995947987
0.886334968426922
0.830853595689219
0.835864802031386
0.947704192710328
1.20660821787591
1.62137238836307
1.90193416206134
1.95470841317096
1.81570346774548
1.29583657621895
1.07090165173947
1.00655100351178
0.981368746204729
0.954681544043338
0.938733781641804
0.929779519420353
0.919187289634373
0.921931133924171
0.919025025650027
0.921399909831047
0.914496003821712
0.918213568872941
0.922240607882715
0.917623862230439
0.924778759649045
0.933083829077861
0.933083829077861
0.936801394129091
0.936537219056353
0.94134359962098
0.94307029461012
0.947068092345309
0.952277418587627
0.955714750954899
0.962914947259306
0.973742110843234
0.97769460969262
0.98805190568034
0.995206803098916
1.00979683061991
1.00743513010246
1.02038906040578
1.03126152287555
1.03841642029412
1.03813618761018
1.04529108502876
1.04832834566599
1.04101305460972
1.04477117425243
1.04089321556353
1.03046137941534
1.01958891694559
1.00256264874666
0.995687984012045
0.972101269331319
0.957511241810307
0.951671654334011
0.935766316870742
0.928611419452219
0.925648698975401
0.907060873719252
0.914410150344433
0.907426959880489
0.90641455487416
0.906134322190201
0.918213568872941
0.920444117027305
0.914496003821712
0.914118604343581
0.921931133924171
0.924539081556664
0.925648698975401
0.933083829077861
0.933083829077861
0.929366264026631
0.933375375078606
0.936229615444385
0.939666947811762
0.934216073130381
0.94103882433821
0.933415975288424
0.933083829077861
0.936801394129091
0.939334801601092
0.935897469233822
0.936801394129091
0.929709723554086
0.933083829077861
0.92214813976453
0.928869025502403
0.930143735234804
0.925648698975401
0.929366264026631
0.933083829077861
0.925648698975401
0.929366264026631
0.921931133924171
0.928387798970869
0.918213568872941
0.922349133612118
0.929366264026631
0.929366264026631
0.928943565662805
0.92866333297893
0.933083829077861
0.919476965288472
0.922561440776494
0.929296422542123
0.940028335297016
0.938134632029131
0.952724659550159
0.97103225212237
0.978187149540953
1.00042461432876
1.01851989973667
0.99767506776253
0.97769460969262
0.984221116223826
0.97769460969262
0.956078921151214
0.936801394129091
0.947954089282781
0.939111181119828
0.933083829077861
0.92447307200221
0.923947458949244
0.929653111351497
0.936808008769998
0.937075012172039
0.933637679804768
0.913280689002768
0.877320353309412
0.896370564775142
1.04253045323644
1.3583246328016
1.75304215319043
1.96776899885681
1.99080647025019
1.78950086786119
1.22888947614742
1.09237104267096
1.04872650143111
1.01630819190417
1.00151908650075
0.987209291663538
0.97529705325958
0.966024832091787
0.966541914538931
0.971816337971532
0.968982853892748
0.966541914538931
0.970975639919759
0.974412972287136
0.97397704464139
0.981287637021778
0.988037764034252
0.985814742884982
0.987882069072467
0.991319401439809
0.990373005987967
0.998194066174437
1
1.00135116585784
1.00478849822518
1.0127340961337
1.02551248755248
1.03391855570543
1.03722564807398
1.05171568047158
1.07063373597337
1.07346060541114
1.08433306788098
1.09520553035071
1.09665669133198
1.10006856873627
1.1115269515369
1.11638998992249
1.1115269515369
1.10584684533404
1.10750461120301
1.08547945357958
1.07114511614367
1.06798801646036
1.03590655181996
1.02078060153
1.00647080669279
1
0.981568782069802
0.974694117335264
0.963986838415764
0.967440137157572
0.95976633256348
0.966541914538931
0.959106784436471
0.962824349487701
0.962824349487701
0.966541914538931
0.965520066562497
0.966541914538931
0.969706541227422
0.968404460567137
0.979269396031791
0.975271598296602
0.98141217474385
0.976960521405225
0.980504463536765
0.98884730484631
0.98512973979508
0.98474289734685
0.985796814927185
0.98141217474385
0.980184634243915
0.976186836508762
0.975906603824857
0.979762848244294
0.966541914538931
0.963913210619443
0.966541914538931
0.962295953723772
0.959354947516546
0.962824349487701
0.966541914538931
0.965356844595536
0.947081321627204
0.955389219385241
0.952522753338424
0.951671654334011
0.951671654334011
0.945066821330602
0.944236524231551
0.951671654334011
0.947954089282781
0.947631386042321
0.947996559839285
0.951671654334011
0.947954089282781
0.954590991890073
0.960667429129447
0.970259479590161
0.97977324919691
0.992444118487182
1.01418904342664
1.01734988380353
0.98597417854033
0.97769460969262
0.981014931343003
0.962824349487701
0.959270006403437
0.933527283728681
0.922654821258951
0.928362344007996
0.919497721575535
0.910778438770482
0.914496003821712
0.916620854575974
0.91580848543472
0.920898884995018
0.917461552627749
0.864752307471699
0.855014963002033
0.946535180379152
1.15806756504447
1.56642525052261
1.89128650614634
1.96925232067876
1.89003018055355
1.45406312073205
1.09985617033542
1.04044971529426
1.00783232788507
0.987194192034938
0.965449267095479
0.947687998244908
0.940533100826409
0.943942149901601
0.933658436091763
0.929366264026631
0.931948756696145
0.940518959180321
0.940518959180321
0.938543188746882
0.938262956062977
0.944236524231551
0.937702490695164
0.944236524231551
0.94457715542981
0.94789369076848
0.947734255113226
0.947954089282781
0.952451953871382
0.947954089282781
0.957766019531288
0.966541914538931
0.964725579760699
0.971150220821753
0.98884730484631
0.98884730484631
1.00069540404261
1.01528543156356
1.01500519887971
1.01501555421409
1.02602295535861
1.02974052040984
1.02974052040984
1.03219186071627
1.03128697783849
1.02967633558383
1.02069474805262
1.00238715548042
0.986746951072409
0.965002026132947
0.940029247661183
0.929156785191454
0.914637511519066
0.89997673014943
0.892190613514332
0.880054709010762
0.867359342740027
0.862450093104492
0.85851926290627
0.862797293325418
0.858732528053263
0.867292375203061
0.861605608741009
0.858732528053263
0.869885223206952
0.869881436895242
0.862726539476645
0.863006772160597
0.871928964778218
0.872485643834265
0.871282600314764
0.873602788258182
0.877320353309412
0.866167658155722
0.871084480414709
0.86432960910798
0.869246431367024
0.858732528053263
0.858732528053263
0.858934434265019
0.855014963002033
0.855014963002033
0.848622437163104
0.852620234898189
0.849694328319456
0.842028005112313
0.846970327952574
0.842588470480127
0.831972701696275
0.842435603847535
0.836860237062339
0.839991836164524
0.840144702797113
0.836427137745883
0.846892001480387
0.837395201848922
0.832709572694653
0.836427137745883
0.838335940642299
0.84432269247445
0.847579832899573
0.857151172691531
0.863237965265281
0.885263122888806
0.892872833893256
0.921825482142414
0.929366264026631
0.887208648446641
0.881037918360642
0.88221167498715
0.867621647466191
0.849314054893893
0.840144702797113
0.838721825108019
0.831566927689518
0.828992007643423
0.832709572694653
0.828992007643423
0.828948579104408
0.825015924177839
0.830069509840039
0.828992007643423
0.779823830671694
0.777904763677406
0.840874229263331
1.04799656440147
1.44874362650895
1.78887890914437
1.87924950192903
1.82463118016609
1.42577750199954
1.02906673939984
0.952959502111727
0.924252188613309
0.901114630860342
0.88308727097196
0.86747256714531
0.86031766972675
0.849445207256975
0.851297397950803
0.855014963002033
0.856026455644116
0.858732528053263
0.866167658155722
0.866167658155722
0.866277096249297
0.862450093104492
0.86683756161711
0.869885223206952
0.87608998448021
0.873602788258182
0.877320353309412
0.876895784598903
0.881037918360642
0.892190613514332
0.892190613514332
0.903343308668022
0.910778438770482
0.91446110588863
0.924388176507233
0.929366264026631
0.947954089282781
0.960512692150282
0.965105853186261
0.98141217474385
0.983408701464334
0.979135415339512
0.98512973979508
0.987966964567231
0.988247197251192
0.98141217474385
0.970219837362854
0.963064939944249
0.944236524231551
0.91609811547044
0.903343308668022
0.87868187450159
0.867809412031859
0.851423806019553
0.832709572694653
0.833944685818077
0.825274442592193
0.817839312489733
0.810404182387273
0.810404182387273
0.810570232683437
0.807132900316073
0.814121747438503
0.814121747438503
0.822843858572753
0.825857580212044
0.828992007643423
0.825274442592193
0.831399919410841
0.833738993294534
0.835677949829886
0.832709572694653
0.839767257700744
0.840053192661337
0.839772959977482
0.813469771934913
0.836427137745883
0.833922013566059
0.83420224624991
0.828992007643423
0.834762711617726
0.825274442592193
0.825274442592193
0.821556877540963
0.822100372933493
0.825011179883622
0.814138717413788
0.821556877540963
0.818416747832831
0.810404182387273
0.820418976830051
0.816421179094861
0.810404182387273
0.814121747438503
0.810404182387273
0.814121747438503
0.813223479201627
0.811022217940189
0.817839312489733
0.821441737170759
0.813899084939752
0.810907077569985
0.810404182387273
0.810404182387273
0.810404182387273
0.808310443254383
0.810313630234114
0.824623425071116
0.82402140151097
0.848552641296835
0.858732528053263
0.881450261390091
0.884623373066278
0.855755574693867
0.851297397950803
0.841561878209471
0.833698393084715
0.819108365563726
0.802350058749364
0.795533922182354
0.795533922182354
0.785708808270273
0.785428575586342
0.79476680630856
0.792303240320972
0.795120621170391
0.788098792079894
0.788098792079894
0.73858907154584
0.727703471030569
0.801116131699239
1.02709803979067
1.42206682530062
1.75786655295028
1.84395154269179
1.78763950790848
1.37007620385645
0.98919632979558
0.925086317642653
0.888472090480588
0.870723047311291
0.856133977772635
0.848419572968833
0.831231953149653
0.831309367257579
0.826954880713122
0.830748901889765
0.82675110415468
0.83390600157318
0.831793376499978
0.833345536205368
0.836427137745883
0.836427137745883
0.840349437338067
0.84337730062343
0.846814632990805
0.851297397950803
0.845187933124925
0.851297397950803
0.849411267306405
0.854399801396553
0.862450093104492
0.867158394510782
0.869885223206952
0.87775062429666
0.892190613514332
0.899495549236224
0.906650446654819
0.921240474175789
0.918213568872941
0.931832703961665
0.938987601380228
0.946142498798771
0.949579831166087
0.949299598482189
0.950084642313887
0.944236524231551
0.936296582981354
0.928917107099074
0.91083409299056
0.885427257219943
0.863682332280304
0.849372537443271
0.835062742606128
0.820752947769062
0.804706102608379
0.799568488197307
0.785801276388497
0.783241410352726
0.783521643036661
0.776366745618079
0.784082108404491
0.776946096926204
0.773489878618623
0.769510966823744
0.786024851251593
0.78548327182398
0.791816357131124
0.788098792079894
0.793423258692312
0.79702851170264
0.796748279018679
0.797383238928643
0.798597595765072
0.79590758096701
0.799251487233584
0.795720728765509
0.795533922182354
0.794786650231383
0.788098792079894
0.793124094449907
0.776946096926204
0.784381227028664
0.785950356709336
0.783092330031847
0.781672326290291
0.776946096926204
0.780663661977434
0.773228531874974
0.773116265452203
0.776946096926204
0.770183698614327
0.764840437298076
0.770744163982143
0.771715102032722
0.765793401772514
0.765793401772514
0.769510966823744
0.762075836721284
0.765793401772514
0.766316140878049
0.762075836721284
0.758395997932333
0.761757877775046
0.762075836721284
0.758358271670054
0.763234493719222
0.762075836721284
0.765793401772514
0.769229821775615
0.784977593930326
0.792974101764858
0.810404182387273
0.815913585236271
0.843862267848343
0.828918379847206
0.810647601173124
0.810404182387273
0.802969052284814
0.781747778814953
0.769510966823744
0.763292018286058
0.758358271670054
0.756153224096908
0.753408421824702
0.747205576516365
0.751594960993905
0.75131472831005
0.750923141567595
0.754640706618825
0.733682650239402
0.688453879689858
0.709020349326931
0.849248273431147
1.15066956816718
1.54673729643525
1.78386277603522
1.82097314688398
1.62707142612451
1.0839258797081
0.914950680553039
0.869327540549992
0.83299258808957
0.81524546088499
0.802969052284814
0.792751393647765
0.785596496229264
0.782159163861887
0.788098792079894
0.788098792079894
0.791816357131124
0.779148361788502
0.787277892332707
0.788639459143227
0.795273487802979
0.799231688929104
0.792116388119565
0.801808524940192
0.80582612097979
0.810404182387273
0.808983220663205
0.816138118081763
0.815857885397852
0.823012782816391
0.830167680234957
0.841935582612313
0.848195040123294
0.851632372490571
0.862504834960398
0.880812427532688
0.883744036388059
0.892190613514332
0.910778438770482
0.912124860334095
0.924022044727864
0.920120455804438
0.923461579360052
0.925648698975401
0.932113849009797
0.927986769258381
0.914086489121459
0.899625743616792
0.884906434079435
0.866598841507244
0.840856118832488
0.827257740030868
0.812947945193655
0.794920585305423
0.788098792079894
0.786493806483629
0.771903778962559
0.773228531874974
0.773228531874974
0.773228531874974
0.76930714464696
0.780510840963084
0.776946096926204
0.777582972801191
0.776946096926204
0.790619015888321
0.782141235904093
0.784381227028664
0.789778317836652
0.791816357131124
0.79293541752007
0.788937619784878
0.796092517203484
0.795533922182354
0.795532051835672
0.792098460161768
0.79497158646784
0.78522379542712
0.796656723264663
0.789501825846165
0.791816357131124
0.786344726162748
0.791816357131124
0.779470061428103
0.784381227028664
0.784381227028664
0.787745889582232
0.776946096926204
0.780663661977434
0.780175866423325
0.777714125164192
0.777994357848129
0.776946096926204
0.779054935687697
0.776946096926204
0.775397723532527
0.780663661977434
0.770498874849606
0.776946096926204
0.773655974533024
0.776798886952109
0.773228531874974
0.769924222217466
0.773922019952552
0.765793401772514
0.770764920269138
0.773228531874974
0.773228531874974
0.771133880377809
0.785723907898876
0.787568571587413
0.800815918238376
0.818341295308167
0.828992007643423
0.843745302749587
0.855692393468495
0.82651233842658
0.81604095128764
0.811583595672279
0.802170779171302
0.795533922182354
0.775248643211649
0.766676524762551
0.771784943517224
0.769510966823744
0.772075485917119
0.769510966823744
0.773212474263859
0.772964356802131
0.773228531874974
0.766618042213173
0.711836726575397
0.713747491055295
0.828369547124787
1.07723720043062
1.49161836040233
1.78545179525695
1.85132239673165
1.7248209929905
1.22867192288538
0.958472600035971
0.903912213405098
0.879199823694661
0.852047498230993
0.828365441484577
0.825274442592193
0.815712545770443
0.812250716422654
0.808837881035796
0.809118113719721
