0.970148847190176
0.941143202631633
0.925372117975441
0.917909329772985
0.91530528000701
0.905305967050289
0.905024130966422
0.906715147469301
0.906715147469301
0.898057489919883
0.900165392529942
0.909815344391193
0.898902998171376
0.846742741802816
0.835390037401658
0.907728022644658
1.11783401751108
1.53864488752506
1.88303990830944
1.95993710625318
1.89799473921164
1.47786490173857
1.11177445611343
1.03241114963864
0.99930127780906
0.984240651380917
0.966147353042322
0.955370056845818
0.947760482582809
0.937987216735483
0.941289988692292
0.949034612978614
0.945585054961147
0.947816271557173
0.949372238036845
0.958954664886493
0.951491876684037
0.956755765190351
0.959439076005276
0.973677666256487
0.962686058987721
0.973158047025986
0.983788557162149
0.98134302949386
0.98134302949386
0.988805817696316
0.996459444896556
1.00373139410123
1.00373139410123
1.0123097906017
1.02322213682162
1.02929921667944
1.04158553520676
1.05595917548118
1.05538376727642
1.06285829151601
1.07089648792333
1.06975740755084
1.07835927612579
1.07835927612579
1.07835927612579
1.06943151852985
1.06343369972088
1.05133822019133
1.02923169166773
1.01831934544791
1.00367560512676
0.989031864805712
0.981850912687031
0.973880241291404
0.962686058987721
0.955223270785265
0.953588043256809
0.959057398009815
0.957422170481362
0.955223270785265
0.962686058987721
0.962686058987721
0.962686058987721
0.966417453088949
0.962844581085513
0.969268130827071
0.976889441127214
0.977611635392632
0.973880241291404
0.97544794380821
0.981375346393853
0.98134302949386
0.980024846160892
0.98237937674303
0.988051306530991
0.971566872434808
0.981533868491543
0.977702632478715
0.980970196323911
0.973880241291404
0.97481674662898
0.980124688072525
0.966417453088949
0.975662254880366
0.973880241291404
0.965031744744309
0.962686058987721
0.963508095164734
0.962145858894573
0.962686058987721
0.970125375115698
0.984158499120371
1.00314424985912
1
1.01377475999518
1.04047877173426
1.04104533511351
1.02264961982838
1.01201910969242
1.00629139092997
0.992710361144303
0.965809727984091
0.954571492743283
0.940253641443122
0.932834906177897
0.940817313610763
0.926173573289703
0.925372117975441
0.929103512076669
0.929103512076669
0.929103512076669
0.926892876343332
0.910475796068462
0.852658408351536
0.874127957272247
1.01199308878795
1.3145035622018
1.73319751359042
1.96371850690529
1.99701615533043
1.79167738824304
1.25599458521535
1.08884282901096
1.04290660975136
1.0058745048229
0.994774210817088
0.980318418281929
0.968663296934005
0.958954664886493
0.951850082604923
0.951594609807359
0.951491876684037
0.961353248405824
0.960789576238091
0.962686058987721
0.966417453088949
0.968355097563976
0.972224432900244
0.971522819497577
0.973880241291404
0.980532729354086
0.988805817696316
0.992537211797544
0.988805817696316
0.996268605898772
1.00626502764377
1.01031346594058
1.01003162985671
1.02094397607664
1.03185632229645
1.03530588031392
1.04248683243251
1.06575302219136
1.06804291897348
1.07030049885571
1.07121064090708
1.08212298712701
1.07885831449354
1.08155931495938
1.08290386157852
1.07945430356105
1.07462788202456
1.06136100522253
1.04298587080026
1.0268331081484
1.00500841570876
0.998109299673825
0.983747395436645
0.966417453088949
0.955223270785265
0.955223270785265
0.951491876684037
0.950746210344224
0.948787985006466
0.945338426989036
0.942437913890297
0.947760482582809
0.947760482582809
0.947760482582809
0.952504751858728
0.953761192603573
0.951941079691102
0.959122031809696
0.959069134047054
0.962686058987721
0.958954664886493
0.962686058987721
0.960196478382307
0.962001964045853
0.962686058987721
0.970148847190176
0.966417453088949
0.965337052902653
0.966417453088949
0.966417453088949
0.965947669219131
0.955176326636307
0.962686058987721
0.955833887101849
0.947760482582809
0.957780376402282
0.951491876684037
0.949498443234645
0.951491876684037
0.957524903604728
0.950343951486032
0.941163783494491
0.95032337062328
0.944331505428093
0.944029088481581
0.958170899223149
0.980799938188986
0.982167956882601
0.994055078953771
1.01961116549463
1.0261197587086
1.00958820927321
0.992537211797544
0.991321761587936
0.983207195343392
0.957651108802528
0.940297694380353
0.940121482631641
0.921640723874213
0.918384896066256
0.920883321497161
0.909407303109632
0.91658825522829
0.915780846300281
0.910446541570529
0.915742746976836
0.912894960450509
0.864395510769764
0.855194933105716
0.931934122522825
1.13931037599504
1.56547647398245
1.89903500481295
1.98094877853161
1.90361921128094
1.48190567451913
1.12049351387047
1.03712003961254
1.004198115569
0.988805817696316
0.96960558469506
0.946973654517513
0.944029088481581
0.936789456176794
0.940297694380353
0.943348055941666
0.946515777875162
0.950587688246454
0.944029088481581
0.952287549574845
0.951491876684037
0.958954664886493
0.95664129602979
0.966417453088949
0.962686058987721
0.966417453088949
0.973880241291404
0.973880241291404
0.973880241291404
0.985074423595088
0.991700548371564
0.996268605898772
1
1.00782983894895
1.0184603490849
1.02836560255359
1.03972136935702
1.04381096937933
1.06034234762439
1.0671650938221
1.06724146365922
1.06363916596753
1.07089648792333
1.07385874361027
1.0729984369196
1.07089648792333
1.06181905305511
1.04483830061266
1.02985115280982
1.0099229431196
0.995279202798559
0.979927895460955
0.966417453088949
0.955223270785265
0.947898423817849
0.937825632235562
0.932834906177897
0.93754974976558
0.932834906177897
0.934382027831994
0.936566300279125
0.938677094100865
0.937905064474807
0.941354622492199
0.948535574610864
0.947267226638605
0.947549062722379
0.9514214604606
0.955223270785265
0.95832057649543
0.959870589361316
0.956421031343954
0.953743674142815
0.962686058987721
0.955223270785265
0.958954664886493
0.956705758639441
0.954380653745605
0.954662489829365
0.958396775142426
0.95148898547231
0.951491876684037
0.951491876684037
0.9448774879448
0.942898852934601
0.944029088481581
0.939954115708337
0.947760482582809
0.933618671841134
0.934182344008867
0.939387552328983
0.932206600210394
0.929449981960412
0.932899539977774
0.947326078015043
0.969150770454677
0.976830760941122
0.970148847190176
0.994621813523456
1.02076198190437
1.00381643757352
0.98134302949386
0.982602532640699
0.972902574228432
0.956867171948855
0.93242091128255
0.917909329772985
0.903283107912632
0.902983753368073
0.911159891010435
0.909451356046835
0.906715147469301
0.907328826187856
0.906715147469301
0.904592617610322
0.905388119310858
0.863130054009381
0.844808159730059
0.890586541652463
1.07628795114946
1.46280956318375
1.83574282230123
1.9477741017119
1.93276551709507
1.59890217265576
1.1365457498497
1.04049016539115
1.00411000969463
0.979948476323814
0.964192018916375
0.944029088481581
0.932834906177897
0.936566300279125
0.932849533426863
0.929399975409502
0.929681811493262
0.931974770677438
0.938850243447564
0.940297694380353
0.930809155828515
0.938310214544641
0.953761192603508
0.955223270785265
0.954324864771135
0.958338094956229
0.958954664886493
0.966417453088949
0.969690970547931
0.970659621595166
0.974672851780153
0.987731371123701
0.991180929141168
0.992537211797544
1.00746278820246
1.01798478279163
1.02363613171697
1.02805162076006
1.04104533511351
1.04184985282972
1.05223951741719
1.05597091151842
1.05925905622636
1.05223951741719
1.05597091151842
1.05223951741719
1.04045512846943
1.01863043602971
1.00799992589367
0.991221919676341
0.979276117419127
0.961182819080566
0.944498872351305
0.936566300279125
0.925559894571271
0.925372117975441
0.911104102036071
0.914177935671757
0.916688097139889
0.914177935671757
0.916124424972246
0.915842588888431
0.915560752804603
0.916808348723938
0.914177935671757
0.915252553434599
0.925627590773003
0.925345754689236
0.932526706807825
0.928513476622837
0.922512595411912
0.932834906177897
0.9351307565738
0.929103512076669
0.932834906177897
0.934285248322414
0.937734806339776
0.933721576154787
0.932834906177897
0.929103512076669
0.921723047325009
0.921881398232575
0.932312395735668
0.922445070400201
0.924285935365587
0.920272705180598
0.915827790449238
0.914177935671757
0.912660068515637
0.916673298700625
0.902983753368073
0.914177935671757
0.91378741285089
0.906606460732194
0.906541998122543
0.914177935671757
0.906715147469301
0.914177935671757
0.940127607435546
0.953640941019448
0.9402946319784
0.959979447288753
0.98134302949386
0.986762377695908
0.942549320648905
0.947760482582809
0.943676664984157
0.921851972544317
0.900027280104676
0.894851668662924
0.889009309549703
0.879329932000152
0.874647405312418
0.878660635497457
0.876863994659478
0.87313260055825
0.880595388760706
0.87313260055825
0.872607027714069
0.841819027186492
0.805929407412702
0.848504688099708
1.01781572298839
1.3733418329877
1.75865819014193
1.91647566915951
1.92347359996448
1.64218075962589
1.12965479387937
1.01802236854472
0.982449621776135
0.949712583116684
0.928792250304645
0.902895476303599
0.910446541570529
0.906715147469301
0.907531230032529
0.896618883812712
0.896900719896472
0.899252359266846
0.906715147469301
0.912671804552877
0.90426655739906
0.916966870821731
0.909785918703035
0.914177935671757
0.914274886371625
0.925187232591443
0.925372117975441
0.925372117975441
0.929103512076669
0.932834906177897
0.940297694380353
0.944008678809055
0.964843796958357
0.966417453088949
0.970148847190176
0.978339783271731
0.989252129491654
1
1.00373139410123
1.01825777404998
1.01933800304607
1.02238836460737
1.02736446341617
1.02391490539878
1.01865697050614
1.02776093985079
1.01831032943227
1
0.990945866016094
0.972338730870579
0.951027875237872
0.940347529741037
0.922304066763314
0.914177935671757
0.896416308777795
0.895520965165618
0.89178957106439
0.890048719200826
0.876863994659478
0.884326782861934
0.879450354774535
0.884326782861934
0.881758112397798
0.884326782861934
0.884326782861934
0.888322323396003
0.898160394233431
0.895520965165618
0.89027748633183
0.900200771831885
0.897194292017578
0.895520965165618
0.899252359266846
0.898039800268965
0.895520965165618
0.895520965165618
0.91007949082414
0.895606179828247
0.899252359266846
0.898773901761848
0.895520965165618
0.888058176963162
0.894196999409128
0.89178957106439
0.884370664608939
0.882764862768582
0.888058176963162
0.879597140834981
0.87614758281762
0.876863994659478
0.87313260055825
0.869530302866554
0.869401206457022
0.87313260055825
0.866644417016814
0.870657647201838
0.869401206457022
0.87313260055825
0.87313260055825
0.887022000904188
0.904049526305402
0.906715147469301
0.916186338750568
0.951712141369879
0.951553448081961
0.918596144736566
0.909196054439428
0.906715147469301
0.890436008429513
0.862619279604273
0.858207024153338
0.850406782082869
0.843281447748426
0.836951957494935
0.839550053647198
0.83151763966342
0.83581865954597
0.839556007260879
0.839550053647198
0.829471308451408
0.819680352952952
0.767164953065786
0.788682130896354
0.94932683459906
1.25891400532038
1.66240853309152
1.87301729446804
1.90316371227953
1.68893867267922
1.13593087280085
0.992022861419817
0.944445803398534
0.915648516298469
0.889602236215369
0.879541523050842
0.861938418254566
0.861938418254566
0.86003904429321
0.856025814108222
0.856938676181093
0.861938418254566
0.865669812355794
0.861938418254566
0.869260202820029
0.876441497319165
0.869401206457022
0.872428095943837
0.879609048062446
0.87932721197865
0.882145401626592
0.886226328013516
0.88594449192965
0.897916486282891
0.895520965165618
0.903755954184402
0.910446541570529
0.917909329772985
0.917909329772985
0.935856013241258
0.944029088481581
0.950573060997461
0.960284755446889
0.970148847190176
0.973880241291404
0.979296869471999
0.986477821590647
0.986195985506813
0.984234697767156
0.988805817696316
0.977335581732326
0.962691841411281
0.94804810109013
0.925941572566626
0.908417728819194
0.892922697823202
0.874547563400822
0.863973013429356
0.85470150597128
0.847012841849654
0.843281447748426
0.83581865954597
0.839550053647198
0.842937869076517
0.835756916957821
0.84306135425271
0.84277951816895
0.839550053647198
0.84115024425422
0.841934009917457
0.85447563005211
0.850744235950882
0.853821131988629
0.85447563005211
0.861938418254566
0.858899963920718
0.858618127836958
0.858207024153338
0.858207024153338
0.861504013686694
0.865669812355794
0.858207024153338
0.858207024153338
0.858207024153338
0.85447563005211
0.85447563005211
0.850744235950882
0.852391028326411
0.849983771171793
0.843281447748426
0.84347824035989
0.843366491220829
0.83581865954597
0.843281447748426
0.840480605371014
0.834512041060055
0.83805582975574
0.839550053647198
0.841607949706299
0.840941715605518
0.870511032331507
0.887230187172468
0.877956302073163
0.900045312136047
0.917891811312186
0.90418117154631
0.880595388760706
0.880595388760706
0.874277463354301
0.842403451406821
0.824624477242287
0.81915206008727
0.804508319766224
0.80714485762231
0.802236112634919
0.805967506736147
0.798836561168371
0.802236112634919
0.798504718533691
0.801208781401488
0.799300220234273
0.748498452973119
0.739815459278857
0.818216924271618
1.02836527919411
1.42674510118564
1.77117957179299
1.86123052787924
1.79813205655408
1.39381699527091
1.00314373628866
0.930089339204145
0.897305527586066
0.867125765733538
0.852763861496359
0.834670563157739
0.829929356283879
0.832087265444743
0.828355871343515
0.828355871343515
0.821923647966669
0.831338536702893
0.83581865954597
0.839364997072975
0.839453274137556
0.839928669240612
0.842620996071158
0.850744235950882
0.840774177492095
0.852969670123413
0.856419228140817
0.856137392056999
0.867049738276875
0.87313260055825
0.871033713963929
0.884326782861934
0.884579364447761
0.89546245616954
0.909824360406932
0.917316403107409
0.917909329772985
0.932834906177897
0.94259065356453
0.956943541786126
0.947760482582809
0.958118172650713
0.957789050037568
0.951491876684037
0.954019385422668
0.951491876684037
0.940259423866682
0.922127855014604
0.907765950777212
0.885941258337577
0.867847959998957
0.855846539957558
0.842855545625614
0.832087265444743
0.823109501297894
0.813430294938603
0.812478991161836
0.813430294938603
0.802236112634919
0.809593105312099
0.809346819720403
0.809241024195023
0.816421976313719
0.813430294938603
0.809698900837375
0.817161689039831
0.815294631978467
0.817161689039831
0.820893083141059
0.825643306030657
0.820893083141059
0.828355871343515
0.83581865954597
0.828355871343515
0.820893083141059
0.832087265444743
0.832087265444743
0.822128943023193
0.828355871343515
0.830287733394982
0.822974451274579
0.817161689039831
0.819806729340978
0.816357171323616
0.818207052304738
0.824383631693699
0.820934073676233
0.817161689039831
0.816557026337015
0.813430294938603
0.812261960068145
0.814880465892894
0.821160463166086
0.844702706585131
0.850744235950882
0.858207024153338
0.884083559672079
0.902393546724015
0.887133065282558
0.865643277879363
0.858207024153338
0.862475555945761
0.827081398567471
0.804437732352562
0.799887364476379
0.781914660102332
0.781632824018466
0.782075902221625
0.782357738305491
0.783579142128779
0.782263678817455
0.779847748027551
0.779847748027551
0.779847748027551
0.734626913468731
0.720871041455725
0.774911118063392
0.974584764928007
1.357769252845
1.73471794859818
1.84368610326885
1.80014844850642
1.43987822139994
1.00394161562997
0.915692226855457
0.880110635261469
0.858327275737459
0.839550053647198
0.822260930644552
0.813430294938603
0.809698900837375
0.811228332840509
0.807887632750374
0.805512692495854
0.81580523519323
0.813430294938603
0.820893083141059
0.825646368432717
0.831858155933394
0.828408597915927
0.836153222202248
0.842665049008372
0.83581865954597
0.84210137684073
0.858207024153338
0.85447563005211
0.855861680777095
0.863362397112811
0.866811955130239
0.879735082070103
0.88863664756998
0.892382840110312
0.906715147469301
0.913910898027084
0.924823244247008
0.936566300279125
0.939185148484293
0.950097494704111
0.949815658620351
0.951491876684037
0.950000372814122
0.955223270785265
0.94963621327946
0.939005703143472
0.921276564339551
0.910199571218134
0.884725808127862
0.866632509789454
0.856001999653294
0.834177307213658
0.829682728311731
0.822501776193141
0.813430294938603
0.809698900837375
0.807244699533905
0.810694257551267
0.805253986106015
0.809698900837375
0.813580143401109
0.8207610955197
0.813016471233482
0.817161689039831
0.820893083141059
0.819633751184446
0.826814703303142
0.830264261320504
0.824624477242287
0.828355871343515
0.832087265444743
0.831306219803007
0.828355871343515
0.828355871343515
0.83202280283509
0.828702170037032
0.832715400222037
0.833998717823684
0.827008091132161
0.826882228314744
0.832307701320809
0.826661792438684
0.820893083141059
0.820893083141059
0.814278865591966
0.821459817710638
0.81687679055411
0.813433357340556
0.817161689039831
0.81025951060305
0.817161689039831
0.817161689039831
0.820893083141059
0.828355871343515
0.854267443783855
0.86045865042189
0.859267357047487
0.890806463958312
0.906080887888099
0.883269512369662
0.869401206457022
0.865881061025998
0.852223490213092
0.818711530715491
0.812373538016907
0.802236112634919
0.796884289444369
0.789139665158153
0.791678738743904
0.781113204788069
0.786326915553355
0.791041930331235
0.790621981822209
0.787172423804742
0.783579142128779
0.722273241119706
0.726900834784134
0.839637151402313
1.09365601184087
1.51437316474776
1.80824926247459
1.86094852060515
1.73187879766383
1.24059374685443
0.97299577776565
0.905740200427827
0.876452719785736
0.8435100436891
0.840266123108709
0.822812695584659
0.819971376242676
0.813430294938603
0.816401053070621
0.811466115987144
0.818844031907424
0.822293589924892
0.820893083141059
0.824624477242287
0.828910869875855
0.832087265444743
0.832087265444743
0.842990938029371
0.842709101945513
0.839550053647198
0.853339612081571
0.85731133816079
0.860238728116401
0.857975365810602
0.867137844151229
0.880595388760706
0.884326782861934
0.89303461815231
0.907055834929484
0.914119084295439
0.921194754459326
0.932330085386589
0.940297694380353
0.945097581440515
0.95387294174257
0.964785287962388
0.959051273205909
0.958954664886493
0.958954664886493
0.960742289708893
0.94195894281462
0.924963905503654
0.913925182895702
0.892100490456067
0.873569896337849
0.862657550118032
0.842552957488878
0.833370069475835
0.820893083141059
0.811545377036094
0.811301982656124
0.813430294938603
0.814469704589726
0.813430294938603
0.812954557455107
0.813430294938603
0.820805148456928
0.8138000657066
0.812127081235089
0.820893083141059
0.818376968059214
0.823127362139038
0.822845526055278
0.820893083141059
0.828355871343515
0.825731411905015
0.831262166865776
0.821436345636159
0.824885903653627
0.817202508384882
0.817766180552419
0.820893083141059
0.818027606963767
0.819745329133281
0.812000704847024
0.809698900837375
0.809698900837375
0.808242605079179
0.808524441163011
0.805074883145577
0.801625325128198
0.798175767110747
0.794914670449701
0.809698900837375
0.827322757686415
0.837953267822579
0.844361676744602
0.856844959073402
0.88103898053433
0.880715469154602
0.87160877978845
0.850749675993991
0.844241596350627
0.831408952926331
0.804778077432475
0.791041930331235
0.783746337861858
0.775667322109485
0.765653039523344
0.76289676365371
0.767359025655537
0.762767153673502
0.755586201554913
0.761190777521412
0.759881267823767
0.732636371230744
0.698502915330554
0.712663271674278
0.866310386951953
1.18661328247198
1.60347180893509
1.80465444008725
1.82657777610731
1.60260429323463
1.06924421746251
0.922981352140272
0.864424594077683
0.839550053647198
0.817607487264598
0.798504718533691
0.787310536230007
0.787310536230007
0.783579142128779
0.783579142128779
0.786714718352614
0.787310536230007
0.786151046184988
0.798504718533691
0.796781556321047
0.800231114338458
0.808856626178063
0.8108616244745
0.813430294938603
0.813430294938603
0.821210298526763
0.82832049204157
0.824624477242287
0.838493467915805
0.83873992469765
0.843281447748426
0.856833223036164
0.864014175154813
0.861938418254566
0.876156770023456
0.886787280159534
0.893686396194311
0.910446541570529
0.910446541570529
0.921640723874213
0.925193186205123
0.928642744222591
0.929103512076669
0.930127952098375
0.924065841869869
0.912034653759862
0.895520965165618
0.881167563373395
0.868103432796619
0.845996904273011
0.838081850661641
0.816709423630812
0.809698900837375
0.809698900837375
0.78770377907248
0.783579142128779
0.779847748027551
0.783579142128779
0.779847748027551
0.78550811296852
0.781494882783426
0.779847748027551
0.791041930331235
0.788112162734496
0.791041930331235
0.791517839004957
0.798504718533691
0.79136764816201
0.794773324432463
0.802236112634919
0.802236112634919
0.799957780699709
0.80249771023638
0.805967506736147
0.80453468305243
0.799655706133648
0.803105264151009
0.797917403101361
0.795078803780927
0.794796967697167
0.798504718533691
0.797964689630754
0.798504718533691
0.791041930331235
0.783044039698385
0.787310536230007
0.790874905788383
0.793272975737099
0.787310536230007
0.783579142128779
0.788620217117878
0.788056544950168
0.809790069113684
0.828355871343515
0.83581865954597
0.841772767798058
0.875827818600533
0.874450612701061
0.853943932404023
0.8470448163693
0.837386533253002
0.825783796097184
0.79003772879183
0.783579142128779
0.778966689283997
0.76492217162264
0.757705669011881
0.76492217162264
0.76492217162264
0.763953520575299
0.761190777521412
0.767986818052574
0.759273542718912
0.747646991108385
0.701488471901765
0.716453345961281
0.87479472396556
1.1748334966358
1.59261542288146
1.81678598367921
1.84770136871475
1.63799011935993
1.0918890629849
0.932287382949675
0.882060186963963
0.846774716322674
0.828355871343515
0.82178230194933
0.808559649274657
0.799362134012543
0.802236112634919
0.802236112634919
0.798492811306225
0.801966183778517
0.801684347694742
0.809698900837375
0.804852069628327
0.813430294938603
0.819213973865597
0.822663531883007
0.823870308457307
0.830880488870421
0.828355871343515
0.828355871343515
0.843642716071265
0.850744235950882
0.847012841849654
0.850744235950882
0.865669812355794
0.868353294360839
0.879265640580657
0.884326782861934
0.910446541570529
0.912002679240322
0.922915025460175
0.931088443081
0.940297694380353
0.944029088481581
0.947760482582809
0.947760482582809
0.943612373564628
0.948459033583522
0.952472263768618
0.939090746615807
0.915721994923964
0.900998651173519
0.884810851600372
0.862986159160524
0.851804226464651
0.840328208077207
0.832087265444743
0.827926906818753
0.820825729319574
0.817161689039831
0.81653066305072
0.81624882696696
0.819698384984321
0.817161689039831
0.819134712816697
0.822933289549181
0.820893083141059
0.824624477242287
0.829201550785129
0.828355871343515
0.839550053647198
0.832087436634969
0.843281447748426
0.838986552669783
0.840745436564628
0.847012841849654
0.839550053647198
0.837509504858671
0.841308766351906
0.847012841849654
0.844622760775491
0.844194652201668
0.847012841849654
0.835469127260275
0.832087265444743
0.839335913765262
0.828355871343515
0.827578059293934
0.833146913578167
0.828355871343515
0.828355871343515
0.826529633627151
0.833631667077294
0.838287488098477
0.841511512577049
0.860303704296576
0.877281051956776
0.869536427670461
0.89881251465587
0.925372117975441
0.917199042735032
0.897505211409256
0.895520965165618
0.889613972252607
0.874914100576638
0.84166952110427
0.824624477242287
0.819844828664528
0.815628852254293
0.8129457126297
0.809698900837375
0.802315202493642
0.80524565485118
0.816518927013481
0.809698900837375
0.799711152727667
0.788022516148208
0.735071018812816
0.772574448322965
0.940257921197265
1.2681307699667
1.67511481914921
1.86360835934549
1.87974579096634
1.62726741380477
1.08636391925975
0.962981323988983
0.91387483396456
0.89033599532769
0.86477990878683
0.857880792751894
0.847250282615943
0.838084913063489
0.84446475224827
0.832988733860826
0.840169685979416
0.843281447748426
0.835930579875153
0.847238717768831
0.850236523947846
0.861148870167747
0.858207024153338
0.860585198000105
0.863573474592855
0.869401206457022
0.869401206457022
0.876863994659478
0.880595388760706
0.883639625518095
0.888463498223221
0.902860268191877
0.902825402460507
0.902983753368073
0.923928071825055
0.927379836293559
0.938886307510305
0.94992434535735
0.966417453088949
0.969617834302779
0.973880241291404
0.978648153831921
0.976856953037102
0.977138789120968
0.963832120115148
0.981524681285783
0.974252903271126
0.955877768848852
0.945901756776276
0.927808458437872
0.899252359266846
0.891621861760845
0.867733490838396
0.855435265083818
0.85337158660111
0.847835049216789
0.840090424930573
0.832604335843759
0.839573354531451
0.83581865954597
0.839550053647198
0.834081041274482
0.839550053647198
0.839550053647198
0.843281447748426
0.847012841849654
0.845559437303186
0.84957266748828
0.856427559395654
0.84762073814463
0.858207024153338
0.861849969999866
0.857731800240504
0.85447563005211
0.85447563005211
0.857123903945436
0.858207024153338
0.856122422427639
0.848941470308998
0.850744235950882
0.853236536577868
0.847970099240102
0.844632290361627
0.846225671404012
0.84305794947051
0.835648572601166
0.838646207589856
0.839550053647198
0.833102860640963
0.834521228265913
0.832087265444743
0.832087265444743
0.829944325913235
0.828355871343515
0.828355871343515
0.823121922095926
0.838627833178326
0.839908601948524
0.861630732454957
0.869785604473985
0.87313260055825
0.895460078528488
0.91667942350453
0.900056192222264
0.880595388760706
0.869401206457022
0.869010170065689
0.837365438819678
0.815540746380042
0.824095841996152
0.813183495776335
0.809663863915883
0.798504718533691
0.802236112634919
0.799385263706675
0.799667099790435
0.799948935874301
0.811424954261745
0.793049819839472
0.747961315282029
0.744853471866003
0.830331634163913
1.04892828105738
1.46591710226499
1.80263958884533
1.8716501317254
1.79262289057564
1.35442181927338
0.999754380147739
0.919684704987523
0.893033762201467
0.860147388649867
0.84994804948961
0.833363944671966
0.831141744091535
0.827692186074067
0.82127493232664
0.820893083141059
0.824442654260242
0.824624477242287
0.824624477242287
0.826301208876594
0.829665038660812
0.832087265444743
