0.843277905994167
0.850740862851588
0.850165146292403
0.864803201727652
0.865666776566429
0.878300503250522
0.882319839958824
0.889772117610255
0.893215737759373
0.894377850083732
0.888908542771478
0.890657050861012
0.891787125567401
0.891787125567401
0.884025631224401
0.878034003382901
0.87686121185256
0.86682888889078
0.861935298137719
0.854216520618651
0.834429053768691
0.828351992279326
0.817157556993195
0.815473124139559
0.816603198845968
0.805963121707064
0.805963121707064
0.809694600135775
0.808500450193499
0.798500164849644
0.818330348523518
0.819428385611991
0.828586454529022
0.816475048374218
0.824620513850616
0.826113201278473
0.818820631434863
0.839002748624215
0.839546427565457
0.832115508325979
0.832403366605569
0.84015418174258
0.835814949136747
0.838362956829153
0.841806576978273
0.839546427565457
0.834130516283111
0.838149852991412
0.836923665431202
0.840367285580322
0.852339862057412
0.869153113539455
0.880507256633458
0.879931540074273
0.9117022626073
0.938483761815269
0.922684074337475
0.899250082424822
0.902981560853532
0.890497343053138
0.850314655176102
0.838448390476984
0.820078856613025
0.810216920665063
0.809694600135775
0.802231643278354
0.798500164849644
0.802231643278354
0.796602628158266
0.7997049939979
0.807455809134911
0.796719619142206
0.764469773185603
0.705607374189453
0.74593861038659
0.904045639197042
1.20059990015776
1.63337808429159
1.84659707666622
1.86373118460934
1.63808665356374
1.11173557155966
0.953751890403175
0.889559013772512
0.865517747964545
0.839973115522758
0.828351992279326
0.819812356745385
0.808905779738847
0.81019556225311
0.802444747116097
0.817008048109498
0.820889035421905
0.820889035421905
0.814364407845104
0.825899617158907
0.8261345596904
0.833885374827413
0.834173233107005
0.835814949136747
0.843277905994167
0.854472341280298
0.85123114576296
0.854472341280298
0.854472341280298
0.869024963067735
0.870720555409134
0.882426151736802
0.886818780372509
0.899932110761984
0.893706020670745
0.905774229719828
0.915519174683822
0.913120675875096
0.933600850268189
0.937044470417307
0.932641642857424
0.932833388283215
0.929101909854504
0.924326270648926
0.923558328382189
0.910455677198678
0.923835027174057
0.904804823384862
0.896009367189245
0.878193711190756
0.870442896053743
0.85522912405931
0.857734895209589
0.839727493785284
0.846902592363112
0.836209599476105
0.837498901708606
0.832083470708036
0.834556723958612
0.833629554165763
0.835814949136747
0.828351992279326
0.842190067829869
0.849706900998955
0.84402400956721
0.854472341280298
0.854131567252574
0.850740862851588
0.861529968592398
0.865666776566429
0.865666776566429
0.861935298137719
0.861935298137719
0.873171969965995
0.870997254200975
0.868289058418915
0.869398254995139
0.872394309056791
0.872682167336384
0.87312973342385
0.887799346195253
0.90546501302831
0.921638952997084
0.918899199878869
0.950211196836678
0.976043687558069
0.966374937881225
0.937119705140914
0.937865328432195
0.931820784842534
0.897075846941553
0.868087594350641
0.861935298137719
0.85461117095798
0.850314174894313
0.847009384422878
0.844280310510626
0.845719121626826
0.843277905994167
0.839546427565457
0.839546427565457
0.844567688508457
0.806412608921603
0.761899446517646
0.796151700098378
0.951218036896068
1.27806053188612
1.69454778506734
1.92841290330601
1.92977984167098
1.68638901296203
1.15739284984812
0.987016260927514
0.930297020360294
0.901702457545215
0.874878721795106
0.856797046210735
0.850740862851588
0.846754044042965
0.846849196333242
0.836262995505974
0.854472341280298
0.850740862851588
0.847009384422878
0.849673902817508
0.856316481941819
0.854472341280298
0.865666776566429
0.872149167601105
0.872437025880698
0.859418367499687
0.88059269028127
0.88059269028127
0.888055647138691
0.881339274136075
0.895518603996111
0.900336960025563
0.907224200323802
0.914175996139663
0.929101909854504
0.922896697893448
0.933803274899989
0.940296345140635
0.956404769028258
0.96247259215689
0.962685215712897
0.962215810931716
0.961927952652124
0.964326451460877
0.965351174952812
0.953111618326316
0.957130955034618
0.944027823569345
0.929092191212065
0.921638952997084
0.906713039282242
0.905562566727423
0.891691492995387
0.884516394417557
0.87312973342385
0.868630312728382
0.858203819709008
0.859547478534947
0.858203819709008
0.865666776566429
0.864983787665722
0.874366119908261
0.86661530477125
0.88366349878475
0.87686121185256
0.88050773691522
0.880389785367729
0.883342642323713
0.884324168709981
0.888055647138691
0.891787125567401
0.889697843450194
0.891787125567401
0.888759994451356
0.896744311274542
0.891787125567401
0.888055647138691
0.884324168709981
0.895295781515928
0.891146373208812
0.884825611109101
0.888055647138691
0.885401327668281
0.883960595425019
0.878939814763789
0.884324168709981
0.887329941414078
0.922853981069551
0.9374920365048
0.933472699796497
0.960008096985257
0.977674724381836
0.956119312157455
0.945052066779519
0.938696385371277
0.938740543040468
0.897289911342857
0.867330331289885
0.863886711140767
0.849248655705518
0.848332165118634
0.847925875009763
0.851369495158881
0.843277905994167
0.84695646867477
0.846774441891395
0.84380070680524
0.836625608227389
0.791263872726447
0.774724918627555
0.832707300197852
1.04777342793186
1.45627935898764
1.84315356952453
1.95504201193979
1.89812167457873
1.51237491132481
1.05554981100921
0.971867524732448
0.933366868300255
0.904624237446797
0.875348126576299
0.87312973342385
0.850379210693696
0.857989755307715
0.853682560319821
0.86330079565738
0.862981380041634
0.858811093604348
0.865666776566429
0.861935298137719
0.861935298137719
0.872585574200846
0.875197176847369
0.870889981859475
0.882000424343051
0.886019761051353
0.886072196517726
0.888055647138691
0.892959436815962
0.897287509934048
0.90178837147478
0.910444517710953
0.914196874269855
0.917640494418972
0.921638952997084
0.925370431425794
0.93803523516428
0.942609410301575
0.95010344421339
0.953228129028536
0.957504246962007
0.955222258855476
0.958953737284187
0.962099300229488
0.962387158509079
0.947759301998056
0.940851663851363
0.940296345140635
0.944027823569345
0.930243144048645
0.918463273560863
0.903279137775592
0.906991178919367
0.886616836022492
0.889206599975299
0.869398254995139
0.87312973342385
0.86968563299297
0.869398254995139
0.872841394862496
0.869974451836085
0.869398254995139
0.87686121185256
0.885763940389694
0.880316471771167
0.889771637328508
0.890911910959143
0.891787125567401
0.894666188645065
0.891787125567401
0.902704862061667
0.899261241912547
0.898652046890187
0.902981560853532
0.89837534809832
0.900656375641345
0.911894968596639
0.89153226546925
0.901276249869693
0.905295586577996
0.890657531142747
0.888897383283753
0.895518603996111
0.89578462358199
0.888077485832405
0.877480605799169
0.888055647138691
0.884324168709981
0.884324168709981
0.88059269028127
0.88059269028127
0.886361015360827
0.878267985350834
0.879099042289927
0.885155225649074
0.902981560853532
0.933344069043039
0.936597384611603
0.936244490532654
0.96459199076502
0.975818943950829
0.962505590338328
0.935777006878494
0.931073720705983
0.926097577995671
0.891330321119231
0.879484454268568
0.86857787726203
0.864601737659395
0.854717002454223
0.858290213920343
0.854803396665556
0.85758490604416
0.853461178684904
0.854472341280298
0.852223351355206
0.852511209634797
0.791807071386
0.793383271334613
0.881691320658863
1.12081671064051
1.57477653478962
1.92798045196771
1.99598148259587
1.87626916571397
1.41213652206542
1.05676627992691
0.984842986007736
0.941044369840704
0.919519074107219
0.895518603996111
0.889037653806719
0.872042855823101
0.870197274316296
0.869909416036703
0.876637909090588
0.869398254995139
0.869045841197928
0.879312146127669
0.864738646210038
0.883108180073999
0.882096537196842
0.889847352333853
0.888483295659484
0.885688225384348
0.891787125567401
0.899250082424822
0.902981560853532
0.903406807965549
0.902981560853532
0.903344653856709
0.913525044856895
0.916968665006012
0.929153384757353
0.927587383732959
0.932833388283215
0.938655109392655
0.950137402958378
0.948824821186851
0.958953737284187
0.958953737284187
0.962685215712897
0.958953737284187
0.958953737284187
0.960276998261694
0.958953737284187
0.950253433378831
0.947759301998056
0.949677716819664
0.940296345140635
0.93149069002079
0.913121156156831
0.905946057579003
0.902502437429885
0.895327338852058
0.895422010860575
0.8809771416964
0.874474352813295
0.872278758918081
0.881840716535177
0.88059269028127
0.884324168709981
0.884815892466639
0.885656187766416
0.885368329486822
0.891787125567401
0.888055647138691
0.887875061200626
0.895304059313059
0.902981560853532
0.894835615095426
0.897308388064268
0.895518603996111
0.895518603996111
0.899250082424822
0.891274043398818
0.894429805268344
0.892189573422206
0.894772980704825
0.891329360555706
0.888055647138691
0.8879376955912
0.887649837311608
0.888055647138691
0.88059269028127
0.87686121185256
0.883707176172175
0.875016110627516
0.873664174004414
0.869398254995139
0.87312973342385
0.870133199080457
0.877308297658288
0.888055647138691
0.906327147021881
0.917490985535328
0.930720346345298
0.949506369242304
0.96396527958472
0.947163667872176
0.925350513859099
0.923226792715194
0.92147048711024
0.894189466630191
0.864218246807763
0.854472341280298
0.85805527138886
0.847148694382321
0.846582216183842
0.843277905994167
0.839546427565457
0.838396435292371
0.839546427565457
0.841412887202442
0.833660631220172
0.782012092364403
0.762186824515496
0.824129863664958
1.01980905127688
1.43864200052616
1.82358855788068
1.94231265268371
1.9011545690757
1.50826847410824
1.06447186382378
0.961026463806978
0.917953073082797
0.899250082424822
0.874303965799429
0.857213054962036
0.850740862851588
0.8503258146638
0.846882194514682
0.843277905994167
0.854472341280298
0.850004477921012
0.849716619641422
0.856891718219251
0.854472341280298
0.854516498949462
0.861315423909374
0.871861789603257
0.865666776566429
0.873821960685262
0.879783952317626
0.86951476569737
0.8766898642752
0.882946551139124
0.888055647138691
0.881627612697407
0.881915470977
0.905612600784989
0.901148579679735
0.906713039282242
0.911701782325565
0.918876880903393
0.923002049107938
0.932833388283215
0.929419404343231
0.933197441849911
0.939356575014758
0.933591131625744
0.932833388283215
0.935231406810215
0.919528792749673
0.925370431425794
0.910444517710953
0.902981560853532
0.895518603996111
0.883653299860522
0.87686121185256
0.865571624276151
0.861935298137719
0.850740862851588
0.838778005016959
0.843277905994167
0.837159088244429
0.843277905994167
0.839438194660435
0.835814949136747
0.849504956648929
0.84890548026901
0.851401052495062
0.854472341280298
0.861935298137719
0.861935298137719
0.865666776566429
0.861156196383237
0.859270779743081
0.874484551737512
0.861489172895515
0.860004763264876
0.865666776566429
0.863160525134405
0.863792039132235
0.854472341280298
0.860850341663972
0.854472341280298
0.854472341280298
0.854472341280298
0.856051903201199
0.850740862851588
0.849375365331953
0.847009384422878
0.841336691915347
0.843277905994167
0.842063358203462
0.847009384422878
0.861935298137719
0.870100200898995
0.87686121185256
0.884099425102726
0.905175233621708
0.929101909854504
0.918995793014399
0.900626259150437
0.891787125567401
0.884496476850864
0.862683322837758
0.838342558980715
0.821805045727055
0.815901252942081
0.813426078564485
0.809589729203028
0.805727698893845
0.802754924371165
0.800609364533548
0.805963121707064
0.798500164849644
0.795150736427281
0.78219267830254
0.729852505474513
0.735954400355416
0.883773398549633
1.18327342524728
1.61877864915899
1.86209678581323
1.9099885325669
1.7196663510938
1.15056982604553
0.975294109005431
0.89504332282645
0.872769041829426
0.841519679262194
0.838076059113076
0.814792536647618
0.813426078564485
0.812212491337275
0.798819100183656
0.813457155618905
0.810208162586118
0.81288143905972
0.814660063640123
0.816037200929245
0.818565771336737
0.817496890175638
0.828351992279326
0.840194016875922
0.823448682883816
0.836894509503836
0.840142541973071
0.839546427565457
0.839526029717001
0.849938481558181
0.854472341280298
0.852785987299657
0.85933485497892
0.869398254995139
0.87312973342385
0.87512434353254
0.877476763545133
0.889216798899527
0.899250082424822
0.893543431172355
0.902981560853532
0.910444517710953
0.892343404841651
0.894386608162675
0.903835417049844
0.901839846377631
0.89091479264968
0.884027552351446
0.875135022738529
0.872546219349243
0.850740862851588
0.847009384422878
0.822038547413272
0.824333616134522
0.817158517556692
0.806829578236331
0.809117923013094
0.807965529331227
0.802231643278354
0.800791391316895
0.804235011466013
0.813426078564485
0.807715472050584
0.807102915055946
0.823768578781325
0.817157556993195
0.820889035421905
0.82087739565242
0.825219509948774
0.820301679093239
0.825495728458874
0.823457440962768
0.822339966589342
0.816903657458541
0.826647161577234
0.824620513850616
0.818286671136105
0.828351992279326
0.819782240254443
0.809960139439915
0.820866716446456
0.810314954645857
0.819692964352636
0.820003141607679
0.833467444949108
0.847817642104766
0.850508321728886
0.861248947264756
0.89973748364568
0.897013212550963
0.879762113623932
0.854472341280298
0.868888534798837
0.82848398500508
0.799141877771703
0.787914444304133
0.777007867297592
0.768648337419961
0.772379815848672
0.770197302568193
0.759866442120835
0.756513651726218
0.756346146402872
0.758273799585199
0.757985941305609
0.74901422170766
0.675754473188825
0.685892740654343
0.789209255650836
1.04831925401502
1.47952914872304
1.77849224867628
1.83268916249879
1.70241717329347
1.20453611987199
0.93481096251575
0.864048340075662
0.83425086923937
0.805496118334666
0.791091564585615
0.776453509150364
0.768648337419961
0.771461884416509
0.767442547708207
0.758947550125174
0.770598309577739
0.772379815848672
0.774737038678787
0.771293418529666
0.779842772706092
0.776621975037207
0.783574251134803
0.794703650621577
0.784280039292699
0.784215003493344
0.802231643278354
0.802231643278354
0.808190272938457
0.809694600135775
0.822969079178408
0.816153231349717
0.831007752595012
0.832083470708036
0.847509385976716
0.847221527697124
0.854396626274953
0.872766160138914
0.860158114402585
0.871251153735616
0.874356881547556
0.87686121185256
0.874932598106737
0.863576053603953
0.869071041863922
0.859268858616069
0.850740862851588
0.847009384422878
0.835210556931894
0.831997076496727
0.817157556993195
0.807287343248052
0.792937146092394
0.78231842736545
0.780522879916262
0.768543946768978
0.766546935251506
0.769695379887344
0.76013102086147
0.74999094527641
0.764916858991251
0.765298428715839
0.76501393240855
0.771994884151783
0.776111294277382
0.786345081307444
0.776111294277382
0.783574251134803
0.7815839635619
0.787305729563513
0.789705669217523
0.793124568982436
0.790281385776708
0.785446106878495
0.787665940876173
0.805855369083803
0.783574251134803
0.794085217238487
0.792826031496854
0.804703935965433
0.792584252013446
0.783574251134803
0.795863361537126
0.807283981275775
0.824620513850616
0.842532762984643
0.840460997025323
0.866175055917448
0.887937215309465
0.874754893859118
0.845360351159398
0.851526321276292
0.838354679031937
0.806904812959914
0.774225397355452
0.764916858991251
0.762296498265757
0.761185380562541
0.749256481472849
0.749544339752439
0.753881170949497
0.746517688918131
0.746259466847699
0.74323281601339
0.745266780973707
0.693068686788295
0.671629898273493
0.722109120578533
0.924008154618689
1.29712514644995
1.67760324715617
1.82226026807056
1.79025378370238
1.44694855815156
0.974202089564528
0.872819443161296
0.844708919594893
0.80696648678702
0.785007666144283
0.773958897487812
0.768648337419961
0.759030582364216
0.762474202513334
0.762914931648848
0.764916858991251
0.765342106103267
0.768648337419961
0.772078876954335
0.769524992873481
0.775385108271029
0.776111294277382
0.779842772706092
0.789447447147105
0.796646305545643
0.802231643278354
0.783574251134803
0.803221927743584
0.805963121707064
0.812596942752385
0.813426078564485
0.816996408340063
0.831634463775313
0.834341218712113
0.842910490455243
0.855784923051798
0.855002939606821
0.858158701476349
0.867842933176706
0.87686121185256
0.869398254995139
0.872437986444194
0.865666776566429
0.869282224574669
0.865323120848187
0.851660235129016
0.85596743011691
0.835189678801711
0.830760209730555
0.818259436335697
0.805963121707064
0.796955522237185
0.788523639326491
0.779842772706092
0.780523840479781
0.779449563211997
0.768437634990949
0.75372242370512
0.764916858991251
0.771621592224402
0.776111294277382
0.774777354093927
0.77286769735129
0.783574251134803
0.781376736112572
0.787305729563513
0.785490744829392
0.792377985127629
0.798117634561536
0.798594836858162
0.798500164849644
0.798500164849644
0.800693837617845
0.792093969102067
0.796113305810369
0.800599165609329
0.796689022369548
0.793245402220429
0.791037207992223
0.794768686420933
0.791037207992223
0.791409059074368
0.809526614530667
0.794564820943896
0.803996226680535
0.831303888671814
0.847009384422878
0.843277905994167
0.866557105923849
0.895649155876585
0.866373045006089
0.848291369421721
0.85167775128693
0.833218828513752
0.786583385811198
0.776111294277382
0.76929197146904
0.75745390213383
0.747839989332113
0.751069064798206
0.752356445903732
0.740874152338012
0.748049250915843
0.738796509990279
0.74001057749924
0.731360194644082
0.669714845424152
0.669300390525557
0.766106912412685
1.02332033464893
1.46456890898902
1.80383228109239
1.85870512084878
1.72531960631602
1.25280680892655
0.924284401381142
0.850747586796145
0.814750780387233
0.796669104802865
0.768648337419961
0.763897418598642
0.753670468520509
0.746023563752719
0.747306989596839
0.75372242370512
0.746259466847699
0.74860360906307
0.761185380562541
0.75549084936131
0.771609472173161
0.764916858991251
0.766726560626089
0.761802373100373
0.768977471678202
0.779842772706092
0.776357876578328
0.779842772706092
0.789392610271969
0.792147365131945
0.794768686420933
0.796814291150738
0.802231643278354
0.805963121707064
0.810876630026802
0.822832170627745
0.824620513850616
0.832401925760287
0.839546427565457
0.850740862851588
0.835814949136747
0.845343428290696
0.84925105711425
0.830674776082759
0.841242980470325
0.826604925035078
0.82689278331467
0.819935111110357
0.812542586159013
0.801636009152474
0.790729432145936
0.787305729563513
0.769452159558651
0.761185380562541
0.761185380562541
0.754853939256795
0.74999094527641
0.746259466847699
0.747995854885957
0.744810937089033
0.747420138326775
0.754595236904601
0.754892333544899
0.760888283922243
0.757463140494535
0.768648337419961
0.768081859221508
0.762894053518631
0.776416188433182
0.779842772706092
0.772379815848672
0.776111294277382
0.777549144830086
0.772379815848672
0.767786203426444
0.783574251134803
0.783574251134803
0.76865121911048
0.776111294277382
0.777265609086267
0.764916858991251
0.761185380562541
0.770089069663182
0.764916858991251
0.76320182936493
0.76777120168471
0.766369711285681
0.752870968917571
0.75801749864179
0.768648337419961
0.783537890981133
0.805663143376251
0.809694600135775
0.823744818960616
0.847250203342815
0.858203819709008
0.835562010165588
0.81748033458122
0.822305527562655
0.79884574169488
0.763235307828118
0.760632463260567
0.752662187615594
0.738796509990279
0.738796509990279
0.724469112091833
0.731333553132858
0.737622277614699
0.73279564378803
0.735065031561569
0.733371360347202
0.720573010030261
0.666780465189597
0.67121880534717
0.801339731816327
1.09328523735393
1.55102010431169
1.85374132420463
1.8756790407022
1.67722916417701
1.15744892980519
0.917022428310189
0.844828311987647
0.810060094547704
0.794314763663248
0.770165264950264
0.760365963392929
0.76065382167252
0.753966124315547
0.753766581374284
0.761185380562541
0.758073776362175
0.752814691197186
0.762380971350066
0.76042080026806
0.768648337419961
0.772379815848672
0.775148724894322
0.774573008335136
0.77772877020467
0.777153053645491
0.787538750967975
0.791037207992223
0.783916946289522
0.797869611415331
0.801313231564449
0.803550581720069
0.805963121707064
0.805795616383716
0.820889035421905
0.831099542913015
0.835814949136747
0.835814949136747
0.848539985857082
0.846564700025928
0.850675346770472
0.850740862851588
0.853831108639999
0.8498117719317
0.847009384422878
0.850740862851588
0.850740862851588
0.835814949136747
0.830720374597165
0.822470038188053
0.813426078564485
0.802731164550455
0.794980349413443
0.791265793853465
0.776839401410726
0.779842772706092
0.765856629117108
0.767420709014513
0.764916858991251
0.774183160813307
0.775660366217642
0.777463711182272
0.79316632524282
0.789483807300812
0.777577820475723
0.787104745776991
0.794594937434793
0.791037207992223
0.787968320615764
0.797549715517803
0.797261857238213
0.800705477387333
0.791037207992223
0.795925995927752
0.800889905579437
0.78835960898284
0.797734143709904
0.79151537085237
0.783954860295917
0.791232315390293
0.79026638403497
0.781189313222528
0.782613122596991
0.787305729563513
0.781379617803088
0.779842772706092
0.776111294277382
0.773710874341609
0.776111294277382
0.772379815848672
0.780777740014411
0.791216833366791
0.824295815135553
0.831687379523422
0.835130999672543
0.852528725792709
0.876908731494003
0.861298868314925
0.845113288576719
0.83793818999889
0.833174190562799
0.802865558684917
0.771635153120881
0.772379815848672
0.761354326731146
0.75745390213383
0.757860672524411
0.756759273463658
0.758436389083592
0.751181733246406
0.75745390213383
0.764916858991251
0.74892974862339
0.713392995627556
0.680114696932306
0.722217946772712
0.912187714448829
1.32413941279546
1.7381581025362
1.87149615393195
1.8471360940496
1.48473732402343
1.00078116414077
0.896875230429267
0.846991387983172
0.823591354815487
0.800767038206979
0.778831610110664
0.773941381329872
0.772815261884916
0.768943512933265
0.765197400037131
0.779842772706092
0.773095802930796
0.775107448915666
0.777259365423473
0.776111294277382
0.777975352505599
0.787305729563513
0.791037207992223
0.787305729563513
0.794768686420933
0.787730496393791
0.780116589807466
0.79461773669203
0.798938972858139
0.799953497425821
0.797485640281963
0.815855174145922
0.81501631969135
0.813401358180282
0.824620513850616
0.842000243531098
0.840536231748934
0.840248373469339
0.853644166031713
0.843277905994167
0.854310712345404
0.846559897208392
0.853734995786219
0.853447137506628
0.843277905994167
0.841147347898312
0.843277905994167
0.826797150742656
0.814693061821581
0.815199307038182
0.802231643278354
0.791037207992223
0.779842772706092
0.772896740271245
0.764916858991251
0.771631791148632
0.761185380562541
0.751314686535636
0.75906550167265
0.76484942178314
0.749347791509115
0.771123511797557
0.772379815848672
0.764236271499321
0.77650402348972
0.768753208352708
0.783391263787957
0.772379815848672
0.782815547228778
0.779842772706092
0.792371628457428
0.785683450818718
0.789127070967836
0.78577224643878
0.784814479873229
0.783574251134803
0.787975637849476
0.783574251134803
0.780031156159656
0.780230105811713
0.780324297538494
0.779842772706092
0.768648337419961
0.77745639394856
0.757919464661
0.768648337419961
0.768648337419961
0.767413391780797
0.768648337419961
0.772379815848672
0.803345755679506
0.813509591085277
0.809898945894572
0.83806981545029
0.86115523581974
0.860339660904148
0.831063550033645
0.826708355122577
0.826552009286956
0.797695269140012
0.766199804553579
0.75745390213383
0.746259466847699
0.746259466847699
0.742527988418989
0.738796509990279
0.742527988418989
0.738796509990279
0.736143631365108
0.737430051907146
0.737142193627555
0.72627138348553
0.64996961511634
0.68012500886396
0.819820493283064
1.11452818392145
1.56579063275396
1.77260249706955
1.82420532440348
1.61939281651092
1.07044865943529
0.911695792929709
0.8413234982932
0.822152543699304
0.787479958831387
0.778352006405265
0.763713950970014
0.763086759507959
0.75745390213383
0.75745390213383
0.764916858991251
0.779370005952661
0.768124095763654
0.771567715912771
0.779842772706092
0.785917913068429
0.785249925909481
0.800268110224084
0.79927146908866
0.792229436807478
0.802231643278354
0.795385198677004
0.802231643278354
0.81711676129631
0.80944753755307
0.820354114559612
0.81798033613508
0.82573115127209
0.830684975006972
0.838218844052202
0.844818226070854
0.858203819709008
0.859572198919136
0.862828989467419
0.869398254995139
0.87312973342385
0.873069500442003
0.86914051320647
0.872038533287327
0.862768756485573
0.863056614765165
0.857290691094374
0.854472341280298
0.84153131903168
0.838087698882563
0.830912600304734
0.812543066440774
0.804772814018825
0.791037207992223
0.802192768708488
0.787574150558169
0.784130530409049
0.782730113580967
0.779842772706092
0.782154397021784
0.78218259238568
0.789041637320023
0.796216735897857
0.788465920760852
0.816285224075448
0.80281611791651
0.813426078564485
0.813434836643454
0.817157556993195
0.817157556993195
0.824620513850616
0.822335163771815
0.835814949136747
0.826338905449199
0.820889035421905
0.818594927264139
0.813426078564485
0.82261234284546
0.822899127554052
0.824334576698021
0.81715947812019
0.813426078564485
0.817157556993195
0.822620027353444
0.814579432809846
0.824028354704459
0.83781735676091
0.85991836905358
0.858203819709008
0.866490629279271
0.896041998096367
0.924807315199592
0.898699566531608
0.88061789094724
0.887755188526118
0.871751522563812
0.838443474652026
0.817157556993195
0.809694600135775
0.794516708013299
0.789333337853642
0.788721741422502
0.794768686420933
0.794768686420933
0.792142082032646
0.783309672394183
0.787282450024567
0.783574251134803
0.732993039587335
0.711973367529399
0.779497421875837
0.97155491781669
1.37052790592346
1.73026989856726
1.83914635286752
1.80677714277003
1.43946331057101
1.0074021305864
0.91316039800104
0.869568048719818
0.844243357067743
0.82644953976296
0.824620513850616
0.802231643278354
0.808909621992844
0.80772423012954
0.80428060998042
0.809694600135775
0.813426078564485
0.809694600135775
0.819826878205346
0.817400777321885
0.828351992279326
0.824953010081107
0.820889035421905
0.831175257918359
0.844473977063437
0.841793976645306
0.849156978394941
0.857816006321631
0.855856315521369
0.863031414099198
0.871014770358916
0.869918654397433
0.877326294097963
0.888055647138691
0.895518603996111
0.894887570280038
0.906713039282242
0.924163681150543
0.919402083123214
0.923587964591364
0.927849928339143
0.916534179533272
0.918992911323882
0.916312317616536
0.923841270836817
0.910222655794213
