0.764223281203355
0.822238117679423
1.05141710819722
1.48619141877108
1.8640325476578
1.96157376794608
1.92504771123103
1.51656120810504
1.06028125172654
0.968612280894666
0.939778734130529
0.909760426908313
0.889220203348073
0.870130937431461
0.866014268757877
0.869538557202584
0.86178606139507
0.863726293603093
0.864584871017916
0.872418912586139
0.870264036024352
0.872071169639491
0.875595458084148
0.882111640601677
0.886176756442999
0.89024187228432
0.889812583576939
0.898505202559857
0.898535195488448
0.90604305401363
0.897616632216612
0.907553997514448
0.917349831194353
0.929248988603826
0.937083030172094
0.946338036455164
0.943088378221499
0.952454923194023
0.967479073269428
0.976253238013085
0.979674420793393
0.987804652476036
0.983984173916942
0.984821191428151
0.986130617453848
0.993002975942942
0.983739536634714
0.991869768317357
0.975587745048403
0.965731925511424
0.944251578775563
0.917542915644433
0.912056835087962
0.893182213525099
0.878046524760356
0.861846047252259
0.858047128596719
0.850835460186028
0.854574392984264
0.8524410763261
0.849590713871106
0.853655829712427
0.849590713871106
0.853655829712427
0.86178606139507
0.851509386175637
0.857720945553748
0.865851177236391
0.861970712820224
0.862009138773745
0.860562874983897
0.873277490000831
0.866851286268999
0.868619993930643
0.872388919657544
0.865851177236391
0.863666307746018
0.860889058026787
0.86178606139507
0.86178606139507
0.85841643144693
0.858120241332535
0.853655829712427
0.857720945553748
0.853166555147856
0.854441294391373
0.848509059077753
0.845525598029784
0.845525598029784
0.847620488734427
0.83966178159826
0.847028108505561
0.857720945553748
0.883021770848587
0.890855812416757
0.898689853985007
0.922827478725553
0.939023262380178
0.92796955550684
0.909103366968672
0.905339135095427
0.897225769462752
0.86123210711984
0.839447137244562
0.83333025050582
0.821134902981855
0.815945012539991
0.813004671299212
0.813004671299212
0.812768467041911
0.804874439616569
0.809295731429456
0.812352305213156
0.809888111658322
0.74730106404496
0.746421881408771
0.840522268377099
1.0904749022253
1.55076094327191
1.90222142188113
1.95645325106823
1.86718936305826
1.37990403774412
1.01939762822725
0.935807336246448
0.903750385005244
0.880982172147549
0.862816163356273
0.845525598029784
0.839017848537181
0.831183806969029
0.824835409826686
0.827711071356574
0.83333025050582
0.837395366347141
0.842791468117828
0.845156295179592
0.8455987107656
0.853655829712427
0.849590713871106
0.856090030338667
0.854767477434375
0.86178606139507
0.86178606139507
0.863850959171118
0.865851177236391
0.879519042307537
0.87922285219308
0.889361734966005
0.898372103966963
0.902724976897734
0.918689250148529
0.922153552736058
0.930893030697535
0.934958146538856
0.937830068897404
0.947153494062821
0.953498152033823
0.951218609904142
0.955283725745464
0.963413957428107
0.954188944073516
0.943088378221499
0.938018459494014
0.918903894502277
0.898642040324316
0.882111640601677
0.867215895265692
0.854634378841453
0.845525598029784
0.830836064022391
0.823002022454238
0.814906477553775
0.815464171000462
0.815760361114837
0.814017907210418
0.801526369572078
0.816648931458194
0.821134902981855
0.820963378435329
0.825200018823177
0.831038536179641
0.826260113712945
0.836039081342882
0.83333025050582
0.829265134664498
0.837395366347141
0.837395366347141
0.846753478294738
0.842392172338925
0.845525598029784
0.845864907951381
0.841460482188463
0.849590713871106
0.853655829712427
0.84637104856592
0.845525598029784
0.845525598029784
0.84725961890921
0.847560502877237
0.839134081080153
0.841460482188463
0.844379263525656
0.837395366347141
0.84607955230503
0.837653130507995
0.837433792300778
0.837060750279129
0.840829676005959
0.830192130961377
0.831711507487236
0.839941105662718
0.837395366347141
0.847478957116495
0.870822684153192
0.88345479872731
0.868851504334329
0.900677899853897
0.943088378221499
0.926123041255765
0.886296728157378
0.886176756442999
0.886889108386244
0.859738029668989
0.835939714850043
0.831729328219333
0.825200018823177
0.823328205497209
0.812090801880844
0.808939555457891
0.812021428316601
0.817069787140534
0.812613808545468
0.80903422809726
0.813206188774334
0.760074710236688
0.745581124726107
0.808053849161498
1.03583629891397
1.45710122164129
1.84090171472427
1.95791359641925
1.91770755852409
1.51709710297781
1.03660099925772
0.948191074366676
0.922144165028888
0.882085386844424
0.866134240472255
0.854814336412939
0.844650154565054
0.841460482188463
0.842928305882059
0.837395366347141
0.835390454428283
0.845525598029784
0.845525598029784
0.847758281181017
0.854475981173553
0.858244906900499
0.853655829712427
0.865782758354274
0.865486568239785
0.863107659617071
0.86178606139507
0.87272822957915
0.872432039464695
0.869916293077713
0.880188274443561
0.889431108530341
0.89157285821357
0.910567451490928
0.907240941349989
0.923205214600797
0.922909024486409
0.942788448935551
0.954837570988114
0.954541380873624
0.954245190759249
0.966144348168722
0.963413957428107
0.957210831075036
0.963413957428107
0.959348841586785
0.951535405239942
0.937116762272145
0.913318447452967
0.893946118300492
0.877917165338807
0.87014780348143
0.846580999065968
0.839043147612307
0.827440180317093
0.819718632120407
0.813004671299212
0.813004671299212
0.817069787140534
0.819670818459715
0.811836776891448
0.813876375592486
0.817645301319432
0.817349111204941
0.825183152773209
0.824573906494259
0.828655888385664
0.832424814112494
0.828063508156798
0.835897549724949
0.83333025050582
0.83333025050582
0.843846869153896
0.830565172983024
0.837395366347141
0.841460482188463
0.845031629611629
0.837593144650806
0.841558893999176
0.837789968272343
0.829265134664498
0.836408384193074
0.826483191091656
0.83333025050582
0.831454698008457
0.825200018823177
0.825200018823177
0.821134902981855
0.817069787140534
0.818487012684111
0.813004671299212
0.817069787140534
0.817069787140534
0.824723871137233
0.840688144388028
0.854724357627237
0.868551575048412
0.874724708473003
0.904545237391439
0.914632567332249
0.889760076062779
0.869916293077713
0.862709318520491
0.852401695690334
0.824538265030047
0.80483975283439
0.801070827107559
0.78917166969797
0.784548860409962
0.781633818244193
0.780483744568641
0.784548860409962
0.780483744568641
0.778753462860605
0.776418628727319
0.760809576765845
0.704088254948212
0.710584786926676
0.862707568269988
1.16918851904294
1.63062463376499
1.8967025639065
1.93217035553818
1.75438110566261
1.18156517660263
0.953615259701476
0.886527283878965
0.858488589500482
0.837402844690056
0.813004671299212
0.815549455932661
0.796744207933926
0.796576422558856
0.796487398455307
0.801658513482841
0.799367753838865
0.800809323775248
0.813004671299212
0.804874439616569
0.806779985042528
0.815206406839608
0.821134902981855
0.814275671371273
0.817069787140534
0.829265134664498
0.824435159365749
0.825286258437504
0.829055184164445
0.846031738644323
0.85285349898349
0.863654135549581
0.864456466278571
0.873981408919034
0.880124549414974
0.892023706824504
0.899857748392699
0.911756905802245
0.915525831529101
0.926230840773762
0.923063682982861
0.922767492868477
0.930601534436629
0.927415601231495
0.925944038366441
0.919877749777719
0.899848360685602
0.885656534267705
0.865851177236391
0.856020656774307
0.840056383523512
0.821134902981855
0.813816389735296
0.803843382973152
0.792898430299823
0.788690828158441
0.792679092092605
0.788613976251283
0.788613976251283
0.798286099045467
0.787056173771902
0.793036222746413
0.790528909384357
0.795125464915228
0.794001644996813
0.800809323775248
0.81227449862387
0.812570688738246
0.808939555457891
0.816911389472629
0.821134902981855
0.817069787140534
0.82415305081192
0.825200018823177
0.817069787140534
0.819005325495033
0.817069787140534
0.819597705723899
0.822375910125321
0.824255201794088
0.817069787140534
0.813004671299212
0.813004671299212
0.817069787140534
0.813540804842345
0.804874439616569
0.808939555457891
0.810364259344306
0.808939555457891
0.812973723688488
0.806626281228158
0.800809323775248
0.799649862392525
0.808939555457891
0.797311289087783
0.801080214814621
0.812954073149192
0.824878529633676
0.848355355263353
0.843288221025199
0.862220998638164
0.893853355025264
0.894306988125642
0.87621218270601
0.857720945553748
0.867225282972747
0.843369766785824
0.823636567808198
0.807968484671663
0.796554862655303
0.796637363098174
0.789017011201527
0.785248085474581
0.788697431376166
0.789905581544769
0.782961065001987
0.786432845932313
0.796744207933926
0.775717494298327
0.719507006948819
0.742821695739138
0.873689117089764
1.15356554463505
1.61706647757596
1.92383216227738
1.96865520180991
1.81488169559684
1.25602687811884
0.989286478172986
0.927770822521047
0.900203581974925
0.878504851714205
0.858771652736346
0.840249467973592
0.840545658087967
0.829265134664498
0.836750478603884
0.833356504262958
0.841460482188463
0.841460482188463
0.844663281443655
0.851338816311237
0.842915179003474
0.855970058624288
0.861757023148603
0.865851177236391
0.865851177236391
0.876917056306227
0.878879803100017
0.878583612985618
0.878287422871134
0.886121464439394
0.893955506007546
0.897724431734493
0.909623589143966
0.916217578250895
0.926827914856214
0.931293281158449
0.959348841586785
0.963413957428107
0.968823186077227
0.977705150338841
0.98705291989712
0.979674420793393
0.987804652476036
0.995661208629986
0.987371624597198
0.976338522945284
0.968504481377132
0.956605323967543
0.925998375688032
0.920611661624517
0.896872377980631
0.876487767598847
0.863326043142355
0.853655829712427
0.857720945553748
0.841086485484686
0.837395366347141
0.841242098663374
0.826229166102336
0.836584602593185
0.836288412478694
0.837395366347141
0.835696032249828
0.839464957976775
0.843752196514642
0.847002809430551
0.84670661931606
0.852770998540527
0.849590713871106
0.857720945553748
0.861782322223613
0.857720945553748
0.857720945553748
0.860893751880345
0.862974561024259
0.855140519456034
0.86178606139507
0.867928247208822
0.86178606139507
0.857720945553748
0.862885536920603
0.856917660142591
0.85314873441576
0.853655829712427
0.853655829712427
0.849590713871106
0.84620326319085
0.845525598029784
0.844000572968328
0.839894246684111
0.847728288252308
0.837647481972289
0.835785056353484
0.837395366347141
0.843496341718044
0.846247337680104
0.875258057526808
0.882111640601677
0.886009925750057
0.909178389068628
0.93343972469524
0.913733654599825
0.883463231752352
0.883759421866844
0.871860264457254
0.854486244005913
0.829265134664498
0.828032560546074
0.812068287295163
0.804874439616569
0.801497331325612
0.8088917417972
0.796992584387611
0.800809323775248
0.804874439616569
0.799672376978206
0.788613976251283
0.745536970680047
0.745951382258541
0.8252170439869
1.06229491489958
1.50309716766122
1.86093118337438
1.9540303475133
1.8817334671626
1.42875989304169
1.00934387127215
0.938714820512362
0.910191545422778
0.869506654909745
0.855170512384587
0.839206239133792
0.829265134664498
0.83000652485421
0.830598905082962
0.827338984017053
0.832556958023257
0.83333025050582
0.837395366347141
0.837395366347141
0.837395366347141
0.841460482188463
0.845525598029784
0.849590713871106
0.856124717120801
0.857720945553748
0.853655829712427
0.859301262618811
0.867135304186999
0.869916293077713
0.878046524760356
0.882507197209007
0.890440605270003
0.902240396186749
0.906502335649606
0.921184391314086
0.933872752573963
0.933576562459588
0.947153494062821
0.961439993119972
0.957078687164159
0.958281268354103
0.966276492079565
0.963413957428107
0.964634359350065
0.96309994658152
0.963378315963914
0.927941392385331
0.915781686325789
0.903307969419431
0.889677575619908
0.863249191235081
0.853655829712427
0.841460482188463
0.835681950689188
0.825200018823177
0.828144099235412
0.821134902981855
0.821663558182075
0.82880020449281
0.82513629379453
0.816709871997512
0.824543913565664
0.836443070975253
0.826448504309557
0.828289370024685
0.839619616473218
0.841460482188463
0.841460482188463
0.845525598029784
0.842499971856806
0.848104114763169
0.850037823310583
0.849590713871106
0.857430403974972
0.853655829712427
0.854393480730683
0.857720945553748
0.85905097680087
0.849590713871106
0.857720945553748
0.855874431302854
0.845525598029784
0.85490996373444
0.848632769963504
0.845525598029784
0.861420497716334
0.845594971594143
0.841687298738595
0.84093747552394
0.845525598029784
0.841460482188463
0.834741827513684
0.851948062590139
0.855659786949157
0.877511345899336
0.88730431553287
0.884456817124213
0.923639197161751
0.935538354571241
0.930324994861549
0.90246156420128
0.894306988125642
0.890846424709686
0.868553404855614
0.845051280151157
0.834823373274426
0.831054447547596
0.819261180291631
0.822818325711213
0.821134902981855
0.825200018823177
0.82192975536797
0.821134902981855
0.829062662507248
0.821228620939096
0.774692961315691
0.763537183017248
0.823507367500986
1.03842348734309
1.45983853382714
1.85820190642848
1.9688576739674
1.93620054592673
1.56103960740871
1.06408661448604
0.972042771825201
0.937771912847534
0.910325598697915
0.890417136002303
0.874452862751393
0.862553705341919
0.86178606139507
0.855015853888144
0.860129847104978
0.857720945553748
0.857720945553748
0.867371508444264
0.875205550012532
0.869916293077713
0.870548053942344
0.882111640601677
0.878046524760356
0.885919946964272
0.885623756849881
0.885327566735405
0.878046524760356
0.894306988125642
0.898372103966963
0.902437219808285
0.910567451490928
0.917510138226509
0.929113105521557
0.930893030697535
0.950668394800354
0.951218609904142
0.959306676461692
0.97120583387128
0.983104991280753
0.983739536634714
0.983739536634714
0.994411768461478
0.991869768317357
0.983905412645529
0.97802099099263
0.972894825579296
0.956165692871096
0.930128171240014
0.913695228646188
0.893962029668331
0.878046524760356
0.866271078236602
0.851022896100509
0.831289697122655
0.826508490166746
0.831725589047875
0.827100870395612
0.831791143883609
0.826771902863199
0.8224105969075
0.825200018823177
0.825200018823177
0.832943126923532
0.83333025050582
0.829265134664498
0.82570146558413
0.837395366347141
0.838489193336961
0.846810679662482
0.845525598029784
0.839377763680319
0.845525598029784
0.84295082046774
0.845525598029784
0.838293324397553
0.842062250124499
0.845220020208239
0.849571938456765
0.83710856393982
0.84087748966675
0.834209433142006
0.83333025050582
0.83333025050582
0.835627613367661
0.831329077758419
0.822839885614814
0.827856342145963
0.822247505385931
0.821951315271524
0.818110231490919
0.824975986762374
0.825127860769489
0.817438135308597
0.817734325422991
0.816109058743604
0.815812868629193
0.817069787140534
0.817069787140534
0.813230533167217
0.818693224012747
0.844114975704047
0.849590713871106
0.846995331087636
0.883427669845021
0.902437219808285
0.886637867886291
0.853655829712427
0.869916293077713
0.852717536344122
0.836007179050145
0.81463932568575
0.806805284117598
0.798582289159844
0.790155867362708
0.793924793089654
0.784548860409962
0.793332412860788
0.797101338587619
0.792679092092605
0.788849225826457
0.792679092092605
0.732603017455698
0.721754646785648
0.832355679218845
1.06576963943314
1.51293063172652
1.86441434093307
1.94519906095873
1.86407630391822
1.38663605796746
1.00063446579668
0.929790691125735
0.886279782550128
0.870549883749545
0.850816684771723
0.837395366347141
0.830470500343656
0.829265134664498
0.829265134664498
0.827048442438277
0.820419766549398
0.829265134664498
0.832247641030254
0.830051554025574
0.837885595593839
0.841460482188463
0.841460482188463
0.849590713871106
0.852961298501373
0.853655829712427
0.860499149955134
0.860202959840679
0.865851177236391
0.869916293077713
0.878046524760356
0.883408894430876
0.891242935999057
0.910567451490928
0.914632567332249
0.922875292386357
0.93477444979583
0.9426084913641
0.954507648773574
0.959348841586785
0.966110616068672
0.969879541795616
0.969439910699052
0.97154418911075
0.97409740676924
0.963413957428107
0.95842932363282
0.951218609904142
0.922435661289793
0.906440440428158
0.891037599795626
0.871600590932144
0.854513452445062
0.846679410876794
0.83333025050582
0.829265134664498
0.819112170330901
0.822861445518435
0.826404429820321
0.820000740674142
0.827589190278057
0.821676685060701
0.825200018823177
0.821134902981855
0.824853230558666
0.833973228884706
0.836456197853764
0.841460482188463
0.845525598029784
0.841460482188463
0.835271437396034
0.849590713871106
0.844176791368438
0.845525598029784
0.844769171597304
0.85005095018921
0.84536155182617
0.837527510257906
0.849590713871106
0.845525598029784
0.842481196442581
0.842777386556995
0.838234293222491
0.83333025050582
0.841460482188463
0.837395366347141
0.834597511406423
0.830236205450638
0.836720485675404
0.837016675789884
0.83333025050582
0.829478824336119
0.829775014450495
0.828459064764011
0.825200018823177
0.827866684535145
0.820459067627991
0.819060617498694
0.831552155137093
0.838877271601417
0.854841544852286
0.86178606139507
0.871696297810697
0.887662480425561
0.918697683173571
0.903322926105371
0.866442602783129
0.877158909099128
0.871100098853316
0.851445581590161
0.818845973145003
0.813004671299212
0.804874439616569
0.806138836470904
0.79970515439613
0.800809323775248
0.800297534624996
0.800809323775248
0.800809323775248
0.804497658423465
0.797417179241408
0.74158243884594
0.755096759216642
0.84555113577549
1.08840483325505
1.53007226664915
1.8843593997751
1.96321510510705
1.86980789688189
1.39240130347418
1.00961388718692
0.938755155830144
0.902923630326373
0.882569967555527
0.851854265075838
0.852605122529714
0.841460482188463
0.8406815411703
0.837395366347141
0.835159898706696
0.841460482188463
0.838632634319149
0.841460482188463
0.841460482188463
0.850288109128639
0.849643221385382
0.853899512312533
0.865311304521801
0.860949998566081
0.864718924292936
0.873981408919034
0.863510694567394
0.873981408919034
0.884428654002867
0.888789959958638
0.896618432548173
0.910567451490928
0.911694135455727
0.918964835041487
0.926827914856214
0.94276314986054
0.944331215172168
0.954366117155639
0.969116591702349
0.978164431974701
0.969738010177685
0.977572051745837
0.981340977472783
0.975609304952071
0.974535128501546
0.962635971092073
0.942124785778182
0.930336212376037
0.910678035498137
0.894713762247342
0.87609030162726
0.858720099904315
0.849590713871106
0.843052016767895
0.828975468210791
0.824897305047902
0.829265134664498
0.832041429701664
0.825200018823177
0.825896459398466
0.829265134664498
0.829473255357345
0.837395366347141
0.829753454546941
0.82848062466768
0.840379782077152
0.841460482188463
0.839787401848286
0.843429752643014
0.854989679687942
0.852152364554523
0.846732873073197
0.856809860624711
0.853040934897878
0.837714071047315
0.853633315126744
0.853382154183727
0.850160579514291
0.84872465811352
0.838557612219192
0.846984034016252
0.837395366347141
0.83534455013179
0.835048360017358
0.829265134664498
0.832204521223148
0.830094673832703
0.830331832772107
0.825200018823177
0.829265134664498
0.837040145057589
0.830567957472354
0.818017388658952
0.832086458873026
0.82267488472914
0.822971074843515
0.825200018823177
0.823563455072383
0.825200018823177
0.831353501708354
0.854403823119885
0.86178606139507
0.86209728775222
0.902015489000871
0.915069334382542
0.889841542266342
0.868887145798554
0.875306746312569
0.865029116411125
0.839313083969544
0.823348810718749
0.819579884991802
0.804874439616569
0.79578157017274
0.796744207933926
0.796744207933926
0.796818275351756
0.800809323775248
0.800809323775248
0.795929705008513
0.790835362331091
0.739988119776942
0.744556671300529
0.854255131387707
1.12980128014172
1.57968128655104
1.89967862616794
1.96289170655364
1.83905177952872
1.30815212174346
1.00005982674332
0.923977472844085
0.892641306571442
0.867643274608754
0.851271352111134
0.841460482188463
0.82291952201137
0.825200018823177
0.827577018081555
0.827873208196007
0.831456607372652
0.83819491258675
0.832826894380609
0.837188200336306
0.841371458084807
0.849590713871106
0.844162789364742
0.844548003582858
0.856447160992359
0.847095572705593
0.855854780763493
0.859623706490378
0.860934087198149
0.868471938651885
0.876009790105703
0.886176756442999
0.894306988125642
0.898623344466922
0.914632567332249
0.922762799014892
0.933432246352325
0.942029238013743
0.953928395423332
0.961000362023408
0.959348841586785
0.967479073269428
0.964429023146517
0.972773024057715
0.967479073269428
0.966206163833227
0.954603196538013
0.934869997560387
0.918949798798711
0.899468715446226
0.891086368138327
0.868132549173386
0.846962474112657
0.839128432544505
0.83535950681756
0.819395233566765
0.825200018823177
0.818217076326758
0.817920886212383
0.813004671299212
0.813263390142195
0.825162547551669
0.825200018823177
0.821764754482231
0.827052102052679
0.832108018776578
0.827746712820881
0.835580754389033
0.845525598029784
0.835737242692793
0.837395366347141
0.837395366347141
0.845525598029784
0.830211861057726
0.841460482188463
0.841579499220715
0.837395366347141
0.83333025050582
0.843510423278743
0.840002921327106
0.831730282901416
0.835499208628293
0.83333025050582
0.831753672612213
0.829265134664498
0.83333025050582
0.825200018823177
0.829265134664498
0.825200018823177
0.821335465774848
0.821134902981855
0.819549016938137
0.814093804435562
0.807554232207164
0.81468618466443
0.813004671299212
0.810730777705128
0.813004671299212
0.839793050383884
0.853655829712427
0.845525598029784
0.874291680594165
0.910553369930288
0.902719328362022
0.863520957399755
0.86178606139507
0.860062303347937
0.84032910437008
0.81653078955113
0.808992938097237
0.800809323775248
0.796568864658883
0.783835633341533
0.782906648123451
0.788089060222519
0.78477758632435
0.788613976251283
0.784548860409962
0.785208704838931
0.752742990554791
0.714189666449662
0.758417779936104
0.95350897176455
1.33714024745437
1.74804384647987
1.92271200197278
1.93059998307772
1.62932873239742
1.06519142031942
0.942646837760564
0.903033259651668
0.866741577386859
0.851073494250529
0.834367830809938
0.825200018823177
0.822764863514856
0.810865706105337
0.823357243743739
0.818616372105544
0.818320181991088
0.821134902981855
0.82585803344485
0.829265134664498
0.83333025050582
0.83333025050582
0.83333025050582
0.843056790178421
0.846644724094646
0.846760081512465
0.849590713871106
0.855713249145562
0.863547290713764
0.864716139803608
0.871085142167524
0.873981408919034
0.886176756442999
0.89080242977739
0.914616655964293
0.91838558169124
0.922762799014892
0.934958146538856
0.945952822237133
0.943088378221499
0.961141893641341
0.959462210083326
0.955989474470986
0.953985596791191
0.956371029074498
0.950427496689484
0.93852833928001
0.918498950187778
0.902534676936983
0.867425766208679
0.859100620268874
0.845525598029784
0.838677583933572
0.820226602542145
0.813004671299212
0.808939555457891
0.800809323775248
0.807637607775107
0.805880197184862
0.800809323775248
0.793505846771459
0.804874439616569
0.80876055256845
0.808939555457891
0.808939555457891
0.813004671299212
0.803510676269396
0.821134902981855
0.821287731671099
0.82338723667227
0.82368342678676
0.83210984858378
0.826124230630725
0.817697808833707
0.829596966243181
0.837324083418527
0.825200018823177
0.824643280058602
0.825200018823177
0.822284021975313
0.818515096248451
0.821134902981855
0.817080049972772
0.817069787140534
0.810374601733565
0.813004671299212
0.813004671299212
0.81245819536688
0.805124725434511
0.808939555457891
0.808939555457891
0.808301270932476
0.808939555457891
0.813004671299212
0.803347584747911
0.804874439616569
0.813004671299212
0.824434284240468
0.841460482188463
0.848533403470665
0.855939190570622
0.87131108359243
0.898203363909766
0.862295861624244
0.845101957858115
0.853655829712427
0.838411386747676
0.815629092329264
0.795135807304525
0.788358041897745
0.782348079551693
0.772353512885998
0.775146673973132
0.776418628727319
0.77303308741132
0.776802013138151
0.780483744568641
0.772771504522066
0.761168537226853
0.696719063994691
0.730279639507726
0.903017905182205
1.22847037774969
1.67204391346678
1.91008641105931
1.94192283074016
1.71830971628503
1.13943720457208
0.951097524393405
0.898070265316874
0.869910644541999
0.846397222766115
0.83333025050582
0.821134902981855
0.81536289514332
0.810414857494402
0.821134902981855
0.811007237723268
0.813004671299212
0.814409724646291
0.824091155590558
0.825200018823177
0.822167868989324
0.837175073457797
0.829265134664498
0.83702327900762
0.836727088893131
0.844561130461398
0.848330056188229
0.856164097756497
0.859933023483327
0.859870173579866
0.865851177236391
0.872563308250388
0.887204073914846
0.890972999641792
0.902872157051278
0.92262405188629
0.922605356029003
0.93811599617965
0.946403670848066
0.953191699087204
0.955283725745464
0.959348841586785
0.965544489596941
0.961579615373648
0.959348841586785
0.959688071951327
0.945261950640616
0.922113217418165
0.902437219808285
0.886119555075138
0.866568143476281
0.854191008573432
0.842291851163958
0.825200018823177
0.822558652186221
0.813004671299212
0.808939555457891
0.808939555457891
0.803417833437342
0.808939555457891
0.805738665566931
0.804874439616569
0.813004671299212
0.812980326906332
0.820493833967114
0.821134902981855
0.825200018823177
0.825200018823177
0.827759839699392
0.83333025050582
0.827167459470526
0.826871269356083
0.83333025050582
0.83333025050582
0.83333025050582
0.83333025050582
0.83333025050582
0.829371024818125
0.829265134664498
0.838093636729651
0.822129363478836
0.827974484053105
0.818656627866381
0.821134902981855
0.813004671299212
0.817955493437537
0.817069787140534
0.812007346755936
0.808939555457891
0.808939555457891
0.809048309657901
0.804874439616569
0.816586161111678
0.808939555457891
0.805950445874291
0.80218152014746
0.800809323775248
0.800673361136091
0.804874439616569
0.804874439616569
0.79959735487825
0.804874439616569
0.804874439616569
0.82991193177178
0.841433273749197
0.849052750520656
0.864155661867591
0.89024187228432
0.880361628797288
0.851044456004063
0.851905897465095
0.84961784275343
0.829884643775573
0.814216560639269
0.810743825026698
0.795909974912164
0.784548860409962
0.78885582904418
0.780592419211601
0.788263448815318
0.791385656991923
0.790499791580947
0.788613976251283
0.784548860409962
0.726832918981111
0.729574686350219
0.831134561286687
1.08369331808963
1.53868731771578
1.88965701017698
1.95351959260246
1.84998726493792
1.33701971883376
1.00345658557368
0.921610736417995
0.886209454303982
0.86717182077638
0.843077315842905
0.835243274274692
0.819279001023842
0.821134902981855
0.819871381252708
0.823265355593809
0.821134902981855
0.82632487298058
0.829265134664498
0.83333025050582
0.829265134664498
0.83333025050582
0.838501365533462
0.834732439806631
0.85195745029724
0.847596144341432
0.847299954227057
0.857720945553748
0.86178606139507
0.864965391382476
0.87050588881725
0.882111640601677
0.886176756442999
0.901540295996824
0.90303238452648
0.917806328340884
0.925640369909152
0.941604643159947
0.955283725745464
0.957272726296367
0.969171883705956
0.97154418911075
0.975609304952071
0.975609304952071
0.976625404909663
0.971756048975055
0.963582617928247
0.943849418950621
0.931569741176475
0.91560546792568
0.896845169541254
0.873046854722306
0.857036597617793
0.835237705295978
0.838237952836896
0.827950060103205
0.816050902693613
0.817069787140534
0.821134902981855
0.821004588878291
0.820969026971036
0.821134902981855
0.817069787140534
