0.814159292035398
0.817902537894945
0.81858407079646
0.808712213922064
0.81722100499343
0.827433628318584
0.81858407079646
0.825394214712824
0.825734981163582
0.817226190092216
0.823008849557522
0.810410861077066
0.819255233500405
0.809750068570692
0.81858407079646
0.814846010035698
0.810761997725394
0.809734513274336
0.800884955752212
0.79441039318782
0.79646017699115
0.79646017699115
0.792035398230089
0.792035398230089
0.792706560934033
0.792035398230089
0.800864215357072
0.814159292035398
0.854947564150591
0.858407079646018
0.864509765166941
0.890376904831798
0.907079646017699
0.889380530973451
0.861143581449648
0.853982300884956
0.833262953672957
0.799553000541894
0.769586293270377
0.769911504424779
0.764774082169481
0.757334256339473
0.757675022790236
0.753591010479936
0.761061946902655
0.759001792901725
0.759038088593285
0.759378855044047
0.714925113551397
0.687843825878768
0.755717120695317
0.962792785611666
1.37085180012106
1.7948260359804
1.97857837949141
1.93938131752661
1.53324535949046
1.05856661371129
0.936876695098873
0.868031501848042
0.841776929843235
0.82033456893944
0.807741765557769
0.792035398230089
0.787295778512254
0.778786987440891
0.783185840707965
0.783185840707965
0.789938948537566
0.789257415636051
0.79646017699115
0.798814431553679
0.803296246401504
0.802557677413226
0.805309734513274
0.815150480794897
0.817933648487719
0.814778603751365
0.823039960150296
0.809734513274336
0.8244341365461
0.844079333417785
0.839313788205966
0.852247358038394
0.85425566105138
0.86283185840708
0.86892417373037
0.88628252232386
0.891833302413087
0.886246226632301
0.894109780493711
0.889416826665011
0.884955752212389
0.876106194690266
0.893805309734513
0.886355113706998
0.875161671819946
0.876106194690266
0.867675180100871
0.852319949421552
0.845132743362832
0.823989668119401
0.817944018685343
0.809734513274336
0.801009398123434
0.779525556429232
0.783185840707965
0.779824842089535
0.780165608540297
0.778761061946903
0.774588902957065
0.778332148816602
0.794803010626532
0.786294219555171
0.793011031693182
0.800250088739881
0.787904720030596
0.805309734513274
0.805309734513274
0.800884955752212
0.809734513274336
0.805309734513274
0.800884955752212
0.798551441584888
0.800884955752212
0.804188918283831
0.795148962176098
0.79646017699115
0.809104831360799
0.804731903587715
0.792087249218066
0.796067559552415
0.792768782119581
0.793109548570339
0.795045260200143
0.784941523949729
0.789707069161549
0.79646017699115
0.826818051631583
0.849557522123894
0.853982300884956
0.864705348851336
0.903506058348621
0.893976417994804
0.880133170913801
0.863570427395368
0.861645085963169
0.816999495815024
0.791132356150177
0.774336283185841
0.76350434814472
0.759420335834415
0.753513233998013
0.752212389380531
0.747787610619469
0.743362831858407
0.752087947009433
0.738938053097345
0.739681807184419
0.68900757296839
0.680139560010209
0.795625376084771
1.04909941425135
1.50480724571044
1.869011705229
1.98176308475065
1.85605344026458
1.30729334239454
0.994481780573477
0.916333641246201
0.860039770586632
0.833356285451468
0.810824218911005
0.787610619469027
0.777878760262208
0.776649056957962
0.78270507658963
0.780392302817508
0.777470587527054
0.778761061946903
0.787610619469027
0.78734244440145
0.791890215463726
0.79646017699115
0.793543646799481
0.806449841067974
0.809734513274336
0.81858407079646
0.809924911859946
0.821042027334944
0.833484462851467
0.830004206960712
0.832802929949952
0.845132743362832
0.850083502061476
0.867256637168142
0.866838094235418
0.879771664067846
0.87833082178285
0.880530973451327
0.891162139709205
0.895747656532986
0.880530973451327
0.888197493558461
0.888100426751173
0.887501855430411
0.876106194690266
0.880273168581322
0.871764377509957
0.862408130375564
0.847426226809665
0.84181322553481
0.819943401570606
0.813308100943466
0.800715297561804
0.794503724966177
0.777567654334262
0.79076047910664
0.785742314123655
0.778761061946903
0.770416743967101
0.783273987387565
0.791606485099731
0.781646481545735
0.790924952198216
0.792035398230089
0.792035398230089
0.805469022506048
0.79646017699115
0.808124012798934
0.79646017699115
0.809734513274336
0.812982889789138
0.805309734513274
0.805496398070045
0.814159292035398
0.801659820432112
0.809734513274336
0.800884955752212
0.79646017699115
0.800884955752212
0.801950185964837
0.798065492367767
0.799620406826353
0.797383959466253
0.791452382205744
0.791550899082913
0.791838364475749
0.787610619469027
0.806614314159595
0.85174066842607
0.867256637168142
0.860209428776975
0.889519078571083
0.909563528050171
0.890980661251284
0.879271609624253
0.866338039791825
0.838974471825092
0.800410826802608
0.774439985161797
0.770355972851498
0.765486725663717
0.756637168141593
0.752212389380531
0.752212389380531
0.756637168141593
0.746680899616421
0.749382555798476
0.755382989413349
0.711333685627141
0.673711663334855
0.742184364360746
0.953683357968112
1.38376941918307
1.78396839515268
1.97232014100655
1.91736547590741
1.51562876661025
1.04784791595467
0.930894716920293
0.881431730572345
0.842634756103914
0.813251064856701
0.795325255535281
0.792035398230089
0.783413985055142
0.774336283185841
0.774336283185841
0.783185840707965
0.783185840707965
0.783185840707965
0.792035398230089
0.789535960901197
0.792035398230089
0.804065925982618
0.810637555354235
0.813597016406257
0.809734513274336
0.81858407079646
0.819044094519592
0.81858407079646
0.830716850455
0.837743318450963
0.84148656431051
0.849557522123894
0.848973056029602
0.858407079646018
0.866547728702692
0.875208337709152
0.886069933273102
0.884739428132791
0.889256088602291
0.884490543390466
0.881336948724013
0.878399678137161
0.88793076856081
0.8823592480763
0.876106194690266
0.865341665933576
0.864406063190883
0.855940202979847
0.836283185840708
0.81858407079646
0.818372931815647
0.80543936198322
0.792035398230089
0.793657718973029
0.784337767530197
0.786117926196031
0.785777159745269
0.77868473553488
0.791430191740586
0.783185840707965
0.802113208986468
0.795572690207657
0.804763014180544
0.818172163032524
0.805174921944482
0.809258934254787
0.804493389042967
0.814159292035398
0.805309734513274
0.813068136328721
0.81647061573751
0.810350089961464
0.805309734513274
0.808511445138884
0.806192036197969
0.808651442806462
0.805108965730094
0.813879296700244
0.796940941109485
0.800063425183119
0.797622474011001
0.806812797983881
0.789454449390391
0.79646017699115
0.815432761088883
0.840959134302982
0.85718919660935
0.860161312817837
0.882676373991936
0.911700008463156
0.894240858033602
0.877078093124506
0.867256637168142
0.86283185840708
0.82019228631297
0.789459634489177
0.780996059237057
0.774336283185841
0.750658924991891
0.764274027725835
0.753084320867656
0.768318009315677
0.752402787966141
0.752362757245681
0.757128302457505
0.747787610619469
0.686106598073288
0.712273858287437
0.835018856622668
1.11114215335075
1.58133099904306
1.92742733589365
1.98873541679977
1.82364617729483
1.22705745379507
0.989668734583767
0.899163406279549
0.865313455480845
0.845969829228343
0.813268070223141
0.79507263576414
0.794600791773367
0.787610619469027
0.781301980066201
0.783185840707965
0.793237725970337
0.798300271883739
0.788652209146494
0.79646017699115
0.805148996450494
0.804808229999735
0.810576784238633
0.81858407079646
0.817060266930649
0.816719500479892
0.820803512790196
0.829979731536668
0.831858407079646
0.846329886004296
0.853982300884956
0.854497910624904
0.86708179387895
0.871515492767637
0.876106194690266
0.880530973451327
0.892617087220674
0.893805309734513
0.882400728866682
0.891594787868403
0.900781376812443
0.884955752212389
0.893805309734513
0.890231722065372
0.884955752212389
0.87185107411961
0.876106194690266
0.863343733118196
0.850410163285772
0.841901372214411
0.830501976445391
0.821133909043356
0.807525441478202
0.805309734513274
0.803782195618665
0.798511410864517
0.791189392237003
0.783185840707965
0.792199871321648
0.79646017699115
0.800884955752212
0.806167560773989
0.804111141801803
0.809734513274336
0.80906998573925
0.816380184099142
0.816720950549874
0.814159292035398
0.814159292035398
0.813318471141099
0.819084125239997
0.805309734513274
0.813977813577413
0.814159292035398
0.814159292035398
0.816566847655913
0.798004721252165
0.800884955752212
0.809734513274336
0.800884955752212
0.795069735624122
0.792035398230089
0.79646017699115
0.797449915680641
0.801347264434175
0.84475941624929
0.857352219630963
0.861963661948795
0.885753642246324
0.909954695418961
0.895052018405121
0.884955752212389
0.871681415929204
0.862720686373443
0.819495198115099
0.785949718075591
0.777781693454984
0.782590169527154
0.761061946902655
0.761594562008975
0.746914229062387
0.758633650886964
0.744917746317014
0.752212389380531
0.754448836740663
0.749246908340922
0.669552774682603
0.697261679017522
0.85391221416786
1.14230477290239
1.61949996137653
1.93490055727565
1.98068748434043
1.78390467995521
1.18228346653822
0.977082566370649
0.892559216245007
0.84737437582175
0.825591248467201
0.805309734513274
0.798563261852496
0.776796524683128
0.791556084181754
0.778761061946903
0.770315942131156
0.773793297881896
0.787610619469027
0.785634877118885
0.792035398230089
0.792648074777198
0.79646017699115
0.79646017699115
0.808238084972522
0.802040617603268
0.814159292035398
0.815107549934481
0.81858407079646
0.823008849557522
0.827433628318584
0.84070796460177
0.84267333675434
0.847987052368891
0.86283185840708
0.865083861063597
0.864663868060865
0.880530973451327
0.893805309734513
0.883336331609363
0.880999917302084
0.86738481456814
0.871468826878442
0.867809992669665
0.884061630260115
0.870446527526173
0.86283185840708
0.857815143494048
0.858407079646018
0.850328651774952
0.834797127736465
0.831858407079646
0.814159292035398
0.79599641823918
0.805063749910846
0.79646017699115
0.780436683747829
0.775235590236913
0.783185840707965
0.78476668066056
0.785689013065667
0.783185840707965
0.800884955752212
0.79646017699115
0.797600283545805
0.792834738333981
0.801802103058471
0.800649341347478
0.813490414290222
0.807000911610723
0.802693940052025
0.811668774834069
0.805309734513274
0.804738538756572
0.805309734513274
0.808942643228011
0.809732228315569
0.790900476774235
0.789198929479218
0.809281124719999
0.791922776126508
0.791807253882912
0.808027780880533
0.828219698084878
0.83945752090232
0.849208670434334
0.881652624569597
0.907079646017699
0.89983456898337
0.871681415929204
0.866126900811074
0.869314506210272
0.817239460429804
0.818798944806051
0.824875485125218
0.768021228321916
0.760147084555178
0.745874089454876
0.747787610619469
0.742812376496844
0.741215981247853
0.738938053097345
0.730088495575221
0.736688950580781
0.673072226404854
0.677877187156012
0.775972313681996
1.00826553084343
1.48414994391809
1.86729939226283
1.96398329308442
1.84138615794801
1.30756437366052
0.9894331201789
0.898075150712824
0.843672610752619
0.813039925875949
0.798549156626148
0.779198895204828
0.778761061946903
0.774336283185841
0.771080436613487
0.765486725663717
0.776229063955168
0.773940765607025
0.778761061946903
0.787610619469027
0.786777268632292
0.784700724446212
0.790921217169423
0.788384034078929
0.800452307593072
0.809550749857582
0.800884955752212
0.805899385706412
0.809734513274336
0.827433628318584
0.831858407079646
0.826914283549859
0.844970555230042
0.842498493465149
0.86130660447126
0.859516075607882
0.876106194690266
0.872108878989553
0.875932801471081
0.867256637168142
0.86283185840708
0.861896255664398
0.856535039271832
0.858407079646018
0.858407079646018
0.849730080454253
0.853982300884956
0.842243588735159
0.829650785353489
0.820719716320559
0.809312235312773
0.805065199980853
0.774595538125796
0.787610619469027
0.77527707102732
0.765486725663717
0.761061946902655
0.771874591618546
0.765486725663717
0.776116441851612
0.780200454161911
0.776533534714334
0.775094142499324
0.778761061946903
0.787610619469027
0.787875059507768
0.795854970501648
0.808788540334072
0.792035398230089
0.789238125310816
0.785642347176476
0.794344436973403
0.790260424663102
0.787610619469027
0.787610619469027
0.783938514922664
0.786786803941155
0.783185840707965
0.774875533461011
0.787000227880685
0.778761061946903
0.790743473740231
0.785977928528412
0.816610613405088
0.842818519520703
0.842477753069945
0.862694145698274
0.889380530973451
0.879035995219522
0.858000356980874
0.849623478338281
0.845407553599201
0.802731685813595
0.762974633178423
0.764189616075074
0.751063362698267
0.732067138065379
0.736832683277197
0.730088495575221
0.731512332493854
0.725663716814159
0.725663716814159
0.725663716814159
0.729784639997208
0.656547228648116
0.671324848109573
0.774149224155661
1.02366246202021
1.50051938871079
1.8703011689935
1.9576279877924
1.8108503201706
1.23829545237739
0.952631793566817
0.889382596224517
0.843943685960103
0.805198562479639
0.770196684858724
0.757889061911005
0.761061946902655
0.7490950904057
0.763838479426722
0.749776623307225
0.747552831103497
0.74687129820197
0.758050634862613
0.755564467871336
0.762525814541646
0.760670779533923
0.765486725663717
0.765196360130928
0.769911504424779
0.787610619469027
0.781386391717023
0.784839272043781
0.787610619469027
0.800884955752212
0.804487369055421
0.809534579379914
0.81858407079646
0.814159292035398
0.827819610588526
0.836328401659891
0.853686750253382
0.843860109198172
0.84610982689592
0.84070796460177
0.837941802275312
0.833857789965006
0.829262737832352
0.834539322866521
0.823008849557522
0.830796077006974
0.823008849557522
0.814159292035398
0.800884955752212
0.800884955752212
0.784468845070195
0.775318551817714
0.769911504424779
0.756637168141593
0.752212389380531
0.741283387532249
0.744310254868665
0.750814477955888
0.755580023167706
0.756637168141593
0.752212389380531
0.756637168141593
0.769911504424779
0.776821000107169
0.762049400633327
0.765486725663717
0.768242517792582
0.776346036268801
0.774612543492223
0.774336283185841
0.775729009511656
0.774336283185841
0.764775532239426
0.76511629869019
0.761061946902655
0.765175619735726
0.766138598042466
0.765486725663717
0.768578099144514
0.770987939723798
0.798870017570435
0.816228366163924
0.820312378474227
0.847645670736823
0.866209862391875
0.869563390952717
0.831493165204904
0.831858407079646
0.836599476867484
0.780732234379506
0.754208037237113
0.737190455094383
0.732833917506477
0.725663716814159
0.721238938053097
0.715835625688938
0.719856581924872
0.719155758698163
0.708665424996622
0.711669266979069
0.707945311444716
0.660899416026035
0.641592920353982
0.741592032735422
0.98236750029299
1.43661625373818
1.81902339806611
1.94659528396811
1.83435595492326
1.32160588485812
0.96854846498655
0.885902340333823
0.817519455764959
0.791993082550857
0.765813386888069
0.757304595816709
0.738938053097345
0.738938053097345
0.737892728391087
0.740968546575508
0.732459755504146
0.733514000337969
0.737566067166733
0.742331612378558
0.749168516677641
0.752212389380531
0.752221309508092
0.756637168141593
0.760389334128703
0.769911504424779
0.78047754935703
0.778761061946903
0.794424498414202
0.774336283185841
0.793742965512677
0.799518154920387
0.807361803275402
0.823008849557522
0.805998737472353
0.805320939599608
0.827770659740565
0.826755830445847
0.838320314487699
0.829139745531142
0.823684362471492
0.829474491994353
0.81892255228845
0.815861674219176
0.817222455063439
0.809734513274336
0.813479209203892
0.792374714610838
0.800886405822219
0.779103278467668
0.778078078975379
0.756637168141593
0.749152126492508
0.737923838983874
0.739270734309299
0.745400795394158
0.730088495575221
0.729733008716868
0.743362831858407
0.743362831858407
0.743696963140372
0.747787610619469
0.76513932404416
0.739626221167664
0.761061946902655
0.75937657008528
0.764482881747816
0.765809036678046
0.763453947226751
0.768219492438608
0.762413192438106
0.754233347549917
0.765486725663717
0.752870281746886
0.756660808676751
0.747787610619469
0.776681002439591
0.749110030520936
0.765486725663717
0.775329756904123
0.798828536780059
0.811762106612484
0.81205704206281
0.865523979280325
0.865847740364663
0.848666080604189
0.827757389402919
0.827433628318584
0.811165600543069
0.7668838021996
0.738938053097345
0.738938053097345
0.720255834532466
0.718875763363007
0.71719412157443
0.714071022319549
0.707562449022299
0.706964492882851
0.716154816855732
0.708283177755458
0.690376439051722
0.624982676057645
0.665326699453448
0.820615838578431
1.16998445612816
1.63675878243672
1.92594356274813
1.93518964850394
1.66838955489102
1.08123428376781
0.917814294544021
0.84694089277382
0.800258173978692
0.774363658749839
0.7606938048879
0.740355870028368
0.741263482025871
0.732869378309278
0.722970145870882
0.727735691082701
0.743362831858407
0.729499459563267
0.73584377947653
0.743362831858407
0.747787610619469
0.743362831858407
0.752212389380531
0.747414283505922
0.752212389380531
0.762116806917725
0.764091099197885
0.769911504424779
0.769911504424779
0.780767914889845
0.789276705961208
0.799559635710795
0.805309734513274
0.819227857936355
0.810037533963466
0.814159292035398
0.831858407079646
0.831858407079646
0.829738316851841
0.828834439883243
0.829175206334002
0.81858407079646
0.821007181713393
0.823008849557522
0.809734513274336
0.816625333812749
0.805948336554373
0.796162341400804
0.783228771568381
0.792035398230089
0.77063596818671
0.755571937928905
0.752212389380531
0.751396878798985
0.740775863031161
0.732084978320563
0.740593769391931
0.738938053097345
0.748761794012542
0.743362831858407
0.756637168141593
0.747883842537871
0.756637168141593
0.764757076803001
0.765486725663717
0.75362357114276
0.754885219928603
0.769672154991209
0.772344985539281
0.759411415706854
0.765486725663717
0.764517727369429
0.759805483215597
0.756924633534364
0.769858203366792
0.761061946902655
0.751477555421022
0.76213754731293
0.750620344341541
0.770822016562246
0.805538713749214
0.802871068299952
0.815804638132375
0.844621703540409
0.868220450363593
0.848311428634513
0.822444288969664
0.814100805878563
0.810932271097113
0.766226744722066
0.742180409624524
0.731510047535085
0.72300125646368
0.712389380530973
0.711926456667817
0.716814159292035
0.70353982300885
0.707964601769911
0.707346740124008
0.699392139442929
0.707964601769911
0.630340772602682
0.649697273718973
0.804547349223388
1.11078297540411
1.58945758681401
1.89968776038072
1.93899968546669
1.73269611691521
1.1298574598768
0.938321667886444
0.857181726551799
0.813343561746339
0.792035398230089
0.757866036557079
0.74853799987539
0.738938053097345
0.743362831858407
0.738938053097345
0.741051508156296
0.738938053097345
0.747787610619469
0.74392053756995
0.74431108975749
0.748395102067796
0.751945664382965
0.760913863996272
0.765071917759764
0.772825134476412
0.769911504424779
0.781748733451724
0.785832745762024
0.787610619469027
0.794000770382658
0.799260350050439
0.811018352525393
0.822065776757275
0.822406543207982
0.831596867180863
0.836283185840708
0.832278400082384
0.850318281577395
0.836283185840708
0.842150256956796
0.837141846990195
0.840885092849734
0.831858407079646
0.824194787112611
0.829990936623034
0.83279629478111
0.822411728306822
0.818327715996523
0.805394146164097
0.79731053319431
0.783185840707965
0.772124926430968
0.768464026970928
0.754000633285143
0.754508157786225
0.756122393290405
0.752212389380531
0.747787610619469
0.761061946902655
0.770503440576686
0.75713950754389
0.778761061946903
0.778330698746538
0.782414711056843
0.780984854150666
0.789130073124812
0.783185840707965
0.785476424014873
0.781236023851812
0.793242076180363
0.787610619469027
0.78061609695466
0.788197370522149
0.779007046549268
0.778855843795298
0.78405693730628
0.777984747196995
0.773219201985176
0.780218909598326
0.772537669083659
0.78333185836315
0.813623776789067
0.82621658017074
0.835020086984856
0.854169184149372
0.884955752212389
0.883992554198075
0.858507046593197
0.840267231203827
0.845132743362832
0.802071508488488
0.764023692913488
0.754833368940601
0.73880240563979
0.738938053097345
0.733285855990792
0.739589090587346
0.734513274336283
0.726240097669657
0.721474552457832
0.725768868860185
0.730088495575221
0.664798830031029
0.672481344849281
0.772948566192363
1.03884618896487
1.50882952019013
1.87247789983403
1.95893920260733
1.83276637060981
1.26180561310763
0.973306540141071
0.88891967236156
0.841259650325833
0.811087824061044
0.782393970661639
0.775468919682923
0.778761061946903
0.762876116301254
0.763216882752011
0.769911504424779
0.761061946902655
0.757884711701025
0.758450722358941
0.771043525740614
0.778535817739742
0.769795982181183
0.782273263319257
0.788407674614139
0.790897576634219
0.79646017699115
0.79646017699115
0.803149613565134
0.807233625875437
0.815742416946802
0.821766491096874
0.820387254816242
0.844571917803697
0.853542182668207
0.845012036020448
0.860985963234497
0.857604839402109
0.858407079646018
0.858407079646018
0.869081176764339
0.856147606931914
0.853394934650578
0.853982300884956
0.852745127523138
0.849557522123894
0.841263605062063
0.84070796460177
0.831984299520876
0.819050729688447
0.814966717378144
0.814159292035398
0.79646017699115
0.787610619469027
0.781015349562191
0.772422762021284
0.765486725663717
0.769911504424779
0.769911504424779
0.771012415147794
0.782976151797218
0.787479541929009
0.783657684698738
0.786798009027496
0.794342152014662
0.795023684916179
0.800884955752212
0.798709279507652
0.794551840925405
0.802452525367199
0.800884955752212
0.795574140277679
0.80864397274891
0.805718742137187
0.805309734513274
0.792512427319645
0.800884955752212
0.786452057477953
0.784685169149795
0.787610619469027
0.794216259573434
0.787610619469027
0.794897792474951
0.806993046079428
0.838044889070081
0.861211602915289
0.845930018215518
0.88895618776069
0.906597431829349
0.878575136607601
0.868420384258017
0.864336371947716
0.843664305806299
0.80301831631764
0.781287874839827
0.772779083768465
0.750995956413871
0.756637168141593
0.747787610619469
0.747593477005142
0.738938053097345
0.748275009906604
0.740594384573139
0.744531764047069
0.722748636692521
0.661142500488415
0.694774896845065
0.861503682166962
1.18752639237197
1.6634447722378
1.95219791504538
1.96266996907693
1.72468795152812
1.12020605758501
0.960678056249162
0.891880583483656
0.848655095225306
0.811249397012584
0.800171477369163
0.785414202829264
0.778761061946903
0.783185840707965
0.769911504424779
0.769911504424779
0.770960564159804
0.783185840707965
0.787610619469027
0.782688071223203
0.794783105120115
0.804130432126998
0.800884955752212
0.79389623351788
0.811957690296848
0.814819249652949
0.821667359038458
0.831858407079646
0.833702852182262
0.82795297308731
0.836461764158677
0.849395333991104
0.853982300884956
0.86114441633847
0.86401634589216
0.871681415929204
0.871681415929204
0.882748965375057
0.877983420163234
0.875921596384691
0.868452329739597
0.868111563288841
0.870138936919382
0.854329087323324
0.858574452877594
0.866748497485801
0.86283185840708
0.847512088530558
0.839177525567146
0.817901703006177
0.811946485210487
0.814159292035398
0.80820323935095
0.779951569419527
0.790335916186366
0.778761061946903
0.783354048828301
0.787783177799449
0.788123944250205
0.805309734513274
0.800884955752212
0.808198889140884
0.805309734513274
0.814159292035398
0.804618666302888
0.82011015962104
0.814159292035398
0.820273182642589
0.822001270612906
0.809897536295888
0.814159292035398
0.817028541156563
0.81501856836612
0.805309734513274
0.805309734513274
0.810954461562256
0.805309734513274
0.807872843097785
0.803926763203802
0.804425367577327
0.808055771625773
0.805808338886795
0.796618014913915
0.83555147172874
0.849557522123894
0.870816954499696
0.866051409287876
0.906866441785689
0.922240743082666
0.889410806677464
0.888235854501209
0.886349093719436
0.84278283901033
0.800050770026718
0.782199002158492
0.778608409122923
0.77452439681262
0.761061946902655
0.770781150953085
0.752212389380531
0.752212389380531
0.759170001022064
0.756637168141593
0.756637168141593
0.729768030104757
0.68375546335838
0.736440724960721
0.921269108296705
1.30235888599643
1.75103150509842
1.9713150667281
1.94500112973689
1.60381209342764
1.08578100023454
0.9475387522422
0.896094223263967
0.867989186168884
0.827433628318584
0.808569931295703
0.795636361463291
0.79549407883693
0.787610619469027
0.787610619469027
0.808116762448826
0.800004939026286
0.786389836292343
0.79646017699115
0.798362493069349
0.811977595803291
0.809734513274336
0.814159292035398
0.81858407079646
0.828252258747661
0.823008849557522
0.827707823373704
0.832265744926039
0.847379780628073
0.849557522123894
0.855208269160424
0.85554903561118
0.867256637168142
0.871609659434778
0.878695228768766
0.890875509205256
0.893805309734513
0.887753640312875
0.88890785209392
0.880794798308878
0.893805309734513
0.872231036401949
0.887599757126429
0.8817621268256
0.876397175404305
0.871681415929204
0.867256637168142
0.858407079646018
0.84070796460177
0.829560353715119
0.823008849557522
0.813691798254652
0.805563189173132
0.810162591515875
0.792590203801678
0.793826542274681
0.786374280995924
0.800884955752212
0.79646017699115
0.794201539165805
0.814159292035398
0.81121912130853
0.809734513274336
0.817780995663789
0.818121762114555
0.814280834266542
0.814159292035398
0.822448858887151
0.822108092436395
0.800884955752212
0.817001780773816
0.823008849557522
0.811998336198498
0.81155470266048
0.811213936209724
0.809734513274336
0.810532403308207
0.818126947213346
0.800884955752212
0.79646017699115
0.800884955752212
0.80882857105442
0.79646017699115
0.792035398230089
0.792035398230089
0.798615947729266
0.787610619469027
0.800884955752212
0.805309734513274
0.834236521884915
0.858859018130347
0.854204644952101
0.871222227094835
0.896519005891717
0.894716437053214
0.883034760990278
0.864424518627298
0.85784915422696
0.809981728239137
0.785800800280489
0.78023011468472
0.772079710611726
0.763124166154815
0.753105896151619
0.761167933837442
0.761296726418627
0.747212064652731
0.752212389380531
0.756637168141593
0.740535898416367
0.682806985751827
0.698847088887718
0.836804024620617
1.10433271249742
1.59015968434418
1.94145166595871
1.99336737980542
1.8237039603889
1.23203734572003
0.991952243307009
0.906340857321972
0.866618650308351
0.836667498333199
0.808660143226642
0.79646017699115
0.79646017699115
0.793542811910781
0.785421672886821
0.788387769107694
0.779197445134814
0.787801852943336
0.805064584799673
0.809734513274336
0.808807830659218
0.799617506686337
0.808126297757701
0.81858407079646
0.818429352721225
0.817747819819704
0.831858407079646
0.829632945098367
0.827433628318584
0.841139162690896
0.845132743362832
0.844882408550441
0.857224877119724
0.86283185840708
0.86283185840708
0.878917572835911
0.891851142668336
0.887250685729323
0.886744831005761
0.893805309734513
0.891590217950804
0.876872974131364
0.880530973451327
0.880616219990909
0.880786493362506
0.872277702291144
0.871681415929204
0.859684898909485
0.848369914791289
0.845132743362832
0.831858407079646
0.823008849557522
0.821565722313738
0.816379349210415
