0.889670880804834
0.896230706390551
0.893788066754133
0.886111876959829
0.895672524286258
0.898952437079124
0.895114342181971
0.921353644524845
0.934611655362067
0.933426111320587
0.956037229985553
0.982204980774973
0.96043113526645
0.946753301990724
0.942707667594866
0.933006288882094
0.897762149596503
0.875434865424813
0.871246127922058
0.862942576190567
0.858126476750628
0.854293125294577
0.850521838509775
0.853381928864142
0.856380378884313
0.847244297437456
0.854080842354781
0.84696283466477
0.795591107305383
0.780317394431903
0.835259984239039
1.02976707388379
1.45233661582264
1.8240570366982
1.93840332964265
1.86892428791854
1.47849093616301
1.0534376354642
0.971170211472691
0.922739612903353
0.907952530580703
0.880525312475797
0.868316857734802
0.864757853889797
0.854080842354781
0.848639752698195
0.859037673181063
0.869435593663932
0.838804757760728
0.861759403869636
0.861480312817489
0.857637474479235
0.864204415226604
0.864757853889797
0.85930964907157
0.858753838687826
0.865530690654427
0.873548036172142
0.875434865424813
0.874533155876573
0.886111876959829
0.886882342003918
0.89065362878872
0.890520012564018
0.907532708142212
0.907120000865362
0.924635929038241
0.925260919254888
0.925260919254888
0.93657240788873
0.928896218094436
0.932378926944898
0.935937930789904
0.937898683316572
0.942354653268727
0.942211550161833
0.943055938479914
0.932650902835405
0.928819923099893
0.918837081614426
0.911998164976562
0.9087182521837
0.89120232401082
0.894978354236712
0.891760506115114
0.875434865424813
0.866494464873938
0.868316857734802
0.86405182523752
0.864757853889797
0.861404017822947
0.864273595059495
0.859672150279895
0.868748538776023
0.869232797606324
0.868316857734802
0.871675437242743
0.882552873114823
0.887232984609506
0.878993869269818
0.88198994756944
0.886395711453065
0.882557616555913
0.886111876959829
0.892676445986636
0.896788888494845
0.889895022347349
0.880384581089462
0.887781679831619
0.880942763193755
0.877662850400897
0.878993869269818
0.871875861579807
0.878993869269818
0.875220210764478
0.875434865424813
0.875778392868771
0.878371250773712
0.883406748315072
0.906285099429462
0.925260919254888
0.925341957690509
0.941037864723075
0.958327279632902
0.951767454047185
0.935937930789904
0.925685485134467
0.924533545117724
0.886111876959829
0.871875861579807
0.856948047870778
0.854080842354781
0.854080842354781
0.84696283466477
0.848713675972181
0.848434584920034
0.845770175461652
0.839844826974759
0.837554777327401
0.836285823129754
0.782595585476551
0.77537716564943
0.85137531377287
1.05495364853546
1.4616956390004
1.80510453414099
1.87500419817788
1.80402297376861
1.37625468550812
1.03484369054856
0.960188019959602
0.917012317033033
0.90034789233985
0.875434865424813
0.875706841315331
0.866411054717792
0.871045703584996
0.860089600997833
0.863369513790692
0.868316857734802
0.8702633799382
0.873209252169267
0.880048168807132
0.886111876959829
0.875930982857833
0.892795831888093
0.889546751462287
0.892888728926419
0.892609637874273
0.890570218632548
0.905085325064716
0.894687404581846
0.907465900029861
0.89833219030355
0.912289114631424
0.918142911564877
0.925966947907155
0.931951989344779
0.935937930789904
0.939234445626559
0.95373295001493
0.95373295001493
0.951142463830541
0.96778514310167
0.967463361079765
0.957291953859936
0.955207071990733
0.960850957704941
0.952817010143418
0.94953709735056
0.949816188402708
0.935937930789904
0.92902034743697
0.925740434644112
0.914583907719872
0.903906896184856
0.893229884649839
0.876296255723822
0.879184806724716
0.878338046686106
0.880301170933307
0.87204782527037
0.873731858465424
0.872164439514122
0.868335831499136
0.878724265099838
0.879542564491944
0.879821655544091
0.880100746596237
0.886111876959829
0.880887813684117
0.886111876959829
0.891894122339836
0.89072755206269
0.894007464855548
0.885613387806268
0.893010486548427
0.889670880804834
0.893568668652721
0.889053005749816
0.888773914697669
0.887287934119142
0.881097724903362
0.87890334395203
0.881007199585574
0.880260451746919
0.886111876959829
0.898914089613263
0.911883522516183
0.914734125988382
0.925260919254888
0.948950054662608
0.967968965394952
0.965376107490014
0.940742171627125
0.93441360274554
0.93598576513792
0.899477415095815
0.867119455090603
0.856721534607735
0.857639846199786
0.854080842354781
0.853837727047918
0.829167815439743
0.837240110467103
0.839844826974759
0.838356474675694
0.839844826974759
0.839472838884284
0.803126965650575
0.755836048558075
0.801126665846536
0.958177833336397
1.29499604262191
1.67723931319724
1.82576004365755
1.83547922422555
1.57459118304207
1.08882450582184
0.974350512002793
0.924469108725922
0.896555260070174
0.888378209401748
0.862081585828696
0.852639924466582
0.857639846199786
0.850020977635665
0.847406374308696
0.861313492505159
0.867644033170139
0.857639846199786
0.859429034973039
0.867143172296027
0.864757853889797
0.870143994036743
0.876982910674607
0.87772491507217
0.875434865424813
0.879704641363173
0.889670880804834
0.889670880804834
0.88979738186792
0.90034789233985
0.906096533695103
0.917179137345351
0.922944780681555
0.923738962931068
0.935937930789904
0.93889566162369
0.945455487209407
0.950173946169925
0.950173946169925
0.960850957704941
0.95373295001493
0.956704911171972
0.950648718118059
0.954486813015211
0.945581988272492
0.939496934634909
0.940711339260067
0.930508699736031
0.918142911564877
0.908596494561705
0.908317403509558
0.893229884649839
0.886405198335232
0.882510182145052
0.871875861579807
0.865845757451869
0.868316857734802
0.863655720004467
0.856843292229734
0.864996225755556
0.871875861579807
0.870535355828718
0.881491458415881
0.869881505028392
0.888664415615537
0.886111876959829
0.882607822624468
0.893229884649839
0.889670880804834
0.892337661983754
0.886111876959829
0.891121285575212
0.887941384982309
0.891679467679506
0.890942206723021
0.896788888494845
0.892516740835946
0.890104933566581
0.886266838669429
0.882801131799917
0.886111876959829
0.888988569357994
0.891307079651866
0.899107398788716
0.922741584686771
0.928858270565742
0.938303875494623
0.969171111480236
0.977722921896829
0.951157094090964
0.933473545731433
0.943055938479914
0.908625755082554
0.876379665880004
0.866813875175317
0.858670428531675
0.84696283466477
0.844992595255947
0.843580537951419
0.839844826974759
0.831433747944509
0.839844826974759
0.829742599587832
0.835694436937869
0.829051601133174
0.762859187426394
0.760463582263647
0.888037825650189
1.13919879913195
1.55183293399615
1.83758148011044
1.8806959182401
1.73960514647723
1.24715928567226
0.995291827795998
0.933915513529149
0.90034789233985
0.875645176581237
0.875766534266066
0.861809609938191
0.841624528865852
0.845793892667076
0.84841086771461
0.84696283466477
0.85362741589152
0.855354539993506
0.857639846199786
0.864757853889797
0.858076270682073
0.868316857734802
0.861442365288807
0.871875861579807
0.878313929543517
0.879952900048266
0.883790994945418
0.878993869269818
0.886111876959829
0.891154489662809
0.897993406300672
0.903906896184856
0.911024903874866
0.907833144679246
0.921790069007119
0.931997052035078
0.939496934634909
0.938747815075705
0.944084149091264
0.939496934634909
0.95373295001493
0.948308462402141
0.951588375194998
0.949038608196999
0.943912185400692
0.942478782611284
0.932378926944898
0.932378926944898
0.925781153830513
0.912103320554785
0.901166191731946
0.890768271249078
0.88748835845622
0.882305014366896
0.875434865424813
0.864281110158287
0.859066533764744
0.857639846199786
0.868316857734802
0.864300083922636
0.854080842354781
0.861198850044791
0.871267473406946
0.878115476989832
0.877827298992672
0.874767184238395
0.882552873114823
0.876541342814057
0.882552873114823
0.889670880804834
0.886829764214802
0.889232084601998
0.89307017949915
0.885992491058372
0.886510353913433
0.896111320489092
0.888714221746934
0.889819127289973
0.888156039642638
0.891493673602859
0.886111876959829
0.894375109442112
0.880849466218255
0.896140181072774
0.887220726069631
0.904268997456008
0.928631357365534
0.93378189730442
0.955051710343971
0.977620138039165
0.974137829125857
0.947808001465207
0.939329714385423
0.94378134083368
0.907611774794447
0.880835635832171
0.871296333990628
0.854381278891813
0.846984180149655
0.857639846199786
0.837896332987983
0.843403830819764
0.843403830819764
0.844777940595617
0.84315122863076
0.845336122699913
0.810405078428423
0.766527690353511
0.798301351426046
0.976658307700591
1.30534135741307
1.70661539732352
1.88684580820666
1.87271614821635
1.59859344136638
1.11548603022622
0.981630996501207
0.933987065082583
0.909911311323984
0.882552873114823
0.874435515397144
0.858360105175307
0.857639846199786
0.861198850044791
0.861081835863872
0.863965643423665
0.857639846199786
0.867362570397444
0.867083479345297
0.870363392138156
0.871875861579807
0.873946513125753
0.874294384073634
0.878993869269818
0.883203952257443
0.88929889271436
0.886111876959829
0.893229884649839
0.890601450936769
0.90034789233985
0.895765421324585
0.912327462097273
0.905488545459409
0.917980434756481
0.926680091721046
0.94063701604892
0.941218915358639
0.917493404268462
0.950173946169925
0.957268236654511
0.950173946169925
0.954801879812669
0.950173946169925
0.956199306856773
0.940868672690218
0.944706767587371
0.932378926944898
0.931028934311641
0.918142911564877
0.913000286661945
0.90339417670804
0.900114263915181
0.886157339587307
0.875759419104437
0.875434865424813
0.884318344682659
0.880229219442694
0.87475769735623
0.880832864174465
0.878993869269818
0.878993869269818
0.887113598708036
0.888948250108774
0.886998956247657
0.893394333241606
0.896903530955224
0.900741625852376
0.90034789233985
0.90841781564668
0.906234893360894
0.901857990060963
0.902117707411596
0.907465900029861
0.909889165964765
0.911024903874866
0.907465900029861
0.904281255995868
0.90419270246145
0.904458363064699
0.903443982839427
0.907465900029861
0.898305701440405
0.901648078841719
0.891650607095825
0.898489523733688
0.893229884649839
0.886111876959829
0.882552873114823
0.887280419020342
0.879299049247929
0.889696969730797
0.896788888494845
0.923664639719896
0.94143357001896
0.944434391759671
0.961671228880406
0.987674531078066
0.973751610712143
0.952380585661136
0.952320492773221
0.943438213326912
0.91608254677546
0.889670880804834
0.882639054928702
0.871553679620722
0.865359126901029
0.866556129608044
0.863517760275843
0.862637396212464
0.864757853889797
0.854080842354781
0.855364026875677
0.854627565793536
0.799904774025098
0.780679495703031
0.874378166264393
1.08961506073427
1.50200328073137
1.85117190385814
1.93316937954757
1.83602557562978
1.42513285099595
1.05878939961456
0.974739502074286
0.932295916725919
0.923391091983193
0.902595251017457
0.878617137738266
0.878896228790414
0.871875861579807
0.875895407049703
0.877514603915746
0.873397417966463
0.882552873114823
0.878993869269818
0.878993869269818
0.892518712619316
0.888526055949742
0.89226808221367
0.903320253434059
0.90034789233985
0.896788888494845
0.900097261934205
0.903906896184856
0.922510727919821
0.911024903874866
0.920334920795659
0.921968747922143
0.928819923099893
0.935088399093573
0.94272386970148
0.949377392199883
0.957291953859936
0.957291953859936
0.957291953859936
0.974767162846427
0.971527969239957
0.973330988399301
0.972685052634935
0.971527969239957
0.96612522704922
0.969533612688535
0.96312440530851
0.962863888083517
0.964409961549947
0.947063225409913
0.939327742602065
0.939496934634909
0.932767917016337
0.918142911564877
0.908413072205593
0.903906896184856
0.910476608589917
0.907465900029861
0.905970432569179
0.901564268748393
0.907465900029861
0.915242102024121
0.914963010971973
0.914783932119783
0.921880994262075
0.932378926944898
0.9245236582984
0.921701915409882
0.932378926944898
0.929229858719037
0.926818051449662
0.935937930789904
0.935937930789904
0.935937930789904
0.937115959732596
0.949554099331525
0.932409759311951
0.932627185629993
0.932378926944898
0.925260919254888
0.927734391258356
0.920872157352239
0.921701915409882
0.927183724252861
0.920344807614997
0.923857948895358
0.918142911564877
0.918142911564877
0.921701915409882
0.928819923099893
0.911977219428855
0.914583907719872
0.911024903874866
0.913429196045431
0.903906896184856
0.919989021631154
0.915008873536618
0.915871835681855
0.912566233900202
0.913854161862182
0.918142911564877
0.914583907719872
0.914583907719872
0.911411522225764
0.910359194471822
0.914583907719872
0.925260919254888
0.947167981050955
0.959068884093309
0.961785471403616
0.981083473188128
1
0.998678867950424
0.971146494267318
0.971732737080946
0.975263680216617
0.951085542537524
0.923171693881778
0.923232958678702
0.906172828689621
0.901920054732237
0.907609403073922
0.905335555533181
0.898048755747493
0.909206854517924
0.903906896184856
0.91040031359539
0.900248280077077
0.84868404341666
0.856589890166384
0.935357975361029
1.15721556027644
1.57628813513895
1.90154982450536
1.98663704750445
1.88255591449748
1.43388194205707
1.09484432319337
1.01518398743011
0.988593642544475
0.964481913040567
0.943686072074829
0.932973084794502
0.928819923099893
0.928819923099893
0.919574342570921
0.9182808712935
0.917722689189206
0.924282514774926
0.922713124040256
0.932378926944898
0.924807892728808
0.932552862418833
0.93248408252311
0.939496934634909
0.943055938479914
0.942113509745262
0.94539342253812
0.943055938479914
0.948394644216013
0.956733371818462
0.958513073709555
0.960118040252352
0.972190906985282
0.981053440695438
0.968073721035985
0.988974317642753
0.992881992309989
0.998534964969182
0.998988391432446
1
1.00868779836186
1.005407885569
1.00499003491387
1.01182895155173
1.00893131360588
1.00711800769001
1.00648867396945
1.01071258734315
0.996928026643025
0.995918389858831
0.99208029496168
0.973689546040869
0.967129720455152
0.962489928209691
0.968523203932526
0.949647396307029
0.941973178296095
0.942252269348243
0.939496934634909
0.939496934634909
0.946581338300148
0.94661494232492
0.95373295001493
0.949303068988714
0.956141985626577
0.952303890729426
0.964267258380246
0.964409961549947
0.966676293991891
0.959319114561763
0.963675472251177
0.970617172746713
0.964233654355472
0.960850957704941
0.967587090485132
0.957291953859936
0.95823201087405
0.966749817328699
0.956729428251731
0.962632631379399
0.948117524947231
0.95373295001493
0.944726141288889
0.943721247945781
0.949787727756205
0.946507814963348
0.942883974789339
0.939496934634909
0.936668076584772
0.942046701632899
0.928819923099893
0.930811507993589
0.932378926944898
0.928819923099893
0.925260919254888
0.928819923099893
0.925857048887852
0.925260919254888
0.925260919254888
0.921701915409882
0.925260919254888
0.942256612852154
0.961929374384851
0.956447965479043
0.978931783206565
1.00164331400865
0.997271554086988
0.966883833490594
0.973474891380542
0.963883011749884
0.949182511178266
0.921733147714115
0.914583907719872
0.905675139410404
0.896788888494845
0.901495488852662
0.890391939654703
0.889670880804834
0.897199623988347
0.90034789233985
0.892213932578374
0.893229884649839
0.858452230241762
0.825787490509763
0.870972152345706
1.04541549070041
1.40746213783043
1.79568296264714
1.94417014488786
1.93147985884215
1.61723727612129
1.13566913951544
1.03167527652376
0.981976895665761
0.965965921835737
0.932378926944898
0.914693406801993
0.914753499689896
0.907465900029861
0.910297129800546
0.907465900029861
0.912310860053477
0.911024903874866
0.907465900029861
0.918142911564877
0.922858598867689
0.916339092531192
0.924662417901374
0.91878173216761
0.925180280756448
0.92122437180403
0.921701915409882
0.928819923099893
0.931302881985527
0.928819923099893
0.932669476662573
0.939496934634909
0.946074162138768
0.952348953419736
0.960850957704941
0.953203628494319
0.975837664490358
0.975144694252326
0.975086973084963
0.985176941932003
0.988456854724862
0.992881992309989
0.990747304309398
0.989322988464984
0.987340490516276
0.99158457746584
0.982204980774973
0.978645976929968
0.981744839087263
0.981661828868283
0.964409961549947
0.964409961549947
0.947271164845799
0.93500261721688
0.930034327725064
0.932378926944898
0.919915498294341
0.920194589346488
0.912127437697376
0.920752771450789
0.921031862502939
0.918142911564877
0.921701915409882
0.921701915409882
0.918589222866521
0.927369118392316
0.928819923099893
0.922985499867963
0.925260919254888
0.932378926944898
0.935937930789904
0.937096985968254
0.945734978198717
0.931778053870844
0.946293160303013
0.932464308884416
0.939733334717298
0.939496934634909
0.935143348603221
0.932378926944898
0.937290695080882
0.926892774598016
0.926908976704619
0.921701915409882
0.922791790755318
0.918953695858165
0.925792612496049
0.911277506063882
0.921728404273013
0.921701915409882
0.915168578687298
0.909193424069008
0.908739197731423
0.903191780587589
0.90034789233985
0.916162785336713
0.920742484694265
0.941538325659998
0.940238539095306
0.958679494084688
0.985947406976082
0.978837314322058
0.962349996697718
0.955330401458914
0.948308062464948
0.934802992754171
0.912516027831649
0.889652306977692
0.878993869269818
0.882552873114823
0.869268373414434
0.879863174604812
0.864757853889797
0.871761619056596
0.868316857734802
0.866985038991556
0.868316857734802
0.856085085725539
0.795143624094786
0.799135480890027
0.922463237703974
1.15439178979948
1.57689809515803
1.86301394172674
1.92117875106179
1.79752095305791
1.27561954153732
1.0367601802593
0.960370670343924
0.933963347877176
0.902490495376419
0.896788888494845
0.873505345202385
0.870225432409524
0.878993869269818
0.869409104800794
0.878180713255974
0.878993869269818
0.882552873114823
0.882576990257415
0.875434865424813
0.877181763165474
0.886973267258864
0.888530399453651
0.89181031224651
0.889670880804834
0.886508382130076
0.88741403524506
0.890693948037919
0.897532864675782
0.898183543881208
0.907651694106501
0.911024903874866
0.904279284212509
0.921050436330085
0.915514477851816
0.93828727345082
0.930308675336128
0.94661494232492
0.94252107364387
0.94661494232492
0.956338066459748
0.949499149821883
0.954128655310828
0.953616335771179
0.957129477051539
0.95373295001493
0.956571294947245
0.934938180825065
0.933657767961886
0.932378926944898
0.918257953962436
0.907465900029861
0.890902287410984
0.88432228824938
0.886642798229175
0.87834081834385
0.861246284455628
0.875434865424813
0.860688102351336
0.86040901129919
0.87080693178206
0.865620816035019
0.864757853889797
0.871875861579807
0.877620159431143
0.876529484211343
0.878993869269818
0.877044175471529
0.885854531329737
0.878993869269818
0.886111876959829
0.886691804486177
0.884270910271813
0.896788888494845
0.893229884649839
0.896456047744593
0.886111876959829
0.882552873114823
0.877968430316196
0.885365529058354
0.878993869269818
0.881988375723282
0.878993869269818
0.881812840500595
0.876083972784071
0.879922067681222
0.911980735155837
0.860026364417571
0.87902192997914
0.913069466494854
0.912113207374128
0.925526951892793
0.94796927846208
0.956893876843498
0.935580972897035
0.918142911564877
0.924821723114883
0.898943750071306
0.865188363021998
0.850792242554114
0.850073955361961
0.841569179419021
0.844180611151097
0.817324633564761
0.822049807749732
0.832118831049078
0.825279914411217
0.825608811594738
0.825608811594738
0.823066559695566
0.759153536844998
0.756921180462427
0.858809132329502
1.07806671627569
1.48807318939871
1.78525780923174
1.84787187329454
1.74281513536794
1.2974677381592
1.00504026888494
0.921818157618967
0.90034789233985
0.876012421230622
0.8503894220966
0.840980564884865
0.836285823129754
0.836285823129754
0.831140826506292
0.829167815439743
0.839844826974759
0.837783262373783
0.842934202249899
0.843594368337482
0.84696283466477
0.840212471561333
0.849875102871054
0.855788192818089
0.858789014558802
0.854973864895203
0.864823462190646
0.868316857734802
0.870792301521641
0.881594242273552
0.885432337170705
0.885711428222851
0.893108526965011
0.896631155127525
0.90034789233985
0.909593072931639
0.91358890119611
0.922976012985793
0.930373111727951
0.935832375274499
0.941608305367262
0.925260919254888
0.931489475936543
0.930040643012312
0.935606661885842
0.921597559706055
0.924807092854426
0.908477908534617
0.891241071413843
0.894294071006492
0.893229884649839
0.87025349311886
0.852179382841685
0.852702389075019
0.843664747981923
0.829167815439743
0.83025017568638
0.832464730213578
0.818524807866678
0.819082989970974
0.828592631354472
0.825608811594738
0.825608811594738
0.835607455249616
0.830859363733605
0.836285823129754
0.84696283466477
0.84696283466477
0.84696283466477
0.839844826974759
0.846769925426488
0.850349474882043
0.847328107530784
0.849877474591615
0.850521838509775
0.851724384532231
0.84904020143517
0.848723562791521
0.84696283466477
0.837525916743712
0.839844826974759
0.84696283466477
0.844612292192309
0.854452030570882
0.875434865424813
0.886980782357686
0.898920804837697
0.921290380041991
0.927804370965629
0.903449526154887
0.888042596993826
0.889011886626239
0.874310214145575
0.84072836263302
0.821437076072963
0.811372796214716
0.804254788524706
0.797361322314365
0.797136780834695
0.8006957846797
0.796074966198581
0.785118863611418
0.790018773144684
0.783139937194779
0.776580111609067
0.722651502090129
0.716102335295577
0.814038721714165
1.04893409158837
1.45498191200359
1.77090392399124
1.82225201785287
1.71746131256417
1.26766194477533
0.968572638029274
0.894738410524769
0.867103652921163
0.843027899162563
0.818490803904727
0.8070603293066
0.806865048347782
0.796941499875876
0.807729982276385
0.807087990078764
0.797778773032318
0.796215697584924
0.809013966671628
0.805734053878771
0.809614439808504
0.811372796214716
0.811372796214716
0.825608811594738
0.815616083289923
0.822454999927784
0.836033620877942
0.835979843277272
0.836285823129754
0.832726819284748
0.842413567737086
0.850521838509775
0.863209408702827
0.861198850044791
0.875434865424813
0.876608150926411
0.896788888494845
0.90267668939024
0.900683904685012
0.904020738770888
0.914361737960739
0.90796716084114
0.913023203993018
0.90708522493158
0.901686426307571
0.90196551735972
0.893229884649839
0.884728680238989
0.876538971093506
0.863932839273251
0.850521838509775
0.845895504615777
0.836261306049958
0.829750514623831
0.828597374795552
0.816630863452396
0.819619426653208
0.80707021612596
0.811372796214716
0.804254788524706
0.807813792369711
0.810918569877096
0.813420130492423
0.807813792369711
0.818688456584085
0.832563942539171
0.821689278324796
0.825608811594738
0.827446234653199
0.831529016703368
0.836285823129754
0.834482803970423
0.832726819284748
0.836285823129754
0.83725156913264
0.830541125341223
0.832726819284748
0.836285823129754
0.832877437490449
0.835426404614058
0.841262427594747
0.859818397079106
0.887136915976266
0.88765795042626
0.902173056858427
0.921052408113445
0.922941636989161
0.903010330014857
0.893229884649839
0.896450504429143
0.853902963314115
0.823148797942695
0.809310459641927
0.805032768667595
0.795691919379761
0.794464456340327
0.791634026444014
0.79380746184764
0.782900765454673
0.782900765454673
0.791923004315521
0.779341761609668
0.75993151698791
0.704612567683917
0.738458852085579
0.899095456478199
1.21880287396351
1.61413141971393
1.83140155765116
1.81911449200024
1.58183268761597
1.07532269141348
0.926155141606851
0.873918452416426
0.841966484463628
0.829167815439743
0.818648937209224
0.803896630820308
0.801333033436246
0.794494116798381
0.795941349973855
0.797136780834695
0.798942171714563
0.804254788524706
0.804254788524706
0.801663902403127
0.805632841867266
0.808223727988842
0.818359959337744
0.821753314779454
0.816213812671578
0.821343379160299
0.824623291953155
0.825608811594738
0.832726819284748
0.84158103802174
0.849877074654436
0.84696283466477
0.853218652181387
0.851761532186554
0.868316857734802
0.879178863472095
0.889670880804834
0.895795853754441
0.90034789233985
0.896788888494845
0.8954550979682
0.905519777763648
0.900122950922974
0.90034789233985
0.892121035540069
0.889670880804834
0.878993869269818
0.875163289471485
0.868316857734802
0.854367448505724
0.845100922429042
0.839844826974759
0.827856570209511
0.823452778109267
0.818490803904727
0.818127502822073
0.810054035885689
0.807813792369711
0.805015366749439
0.814450312887136
0.81117040009428
0.811219406351294
0.822049807749732
0.822049807749732
0.815028668567335
0.822049807749732
0.832726819284748
0.830919056684327
0.834255490833024
0.83147723878862
0.838874337530775
0.839844826974759
0.849697223830391
0.836019390554658
0.835848198835952
0.833576750918245
0.839140770105863
0.844386978740807
0.843403830819764
0.8413861570001
0.838106244207241
0.837745314845125
0.84696283466477
0.866560473111949
0.886734095518755
0.885768749453048
0.911088940329497
0.931948817749868
0.925755064904549
0.910251667173056
0.902854568430895
0.901244058572643
0.867640889477801
0.837955226064371
0.831336507402279
0.814931800059722
0.817658674126546
0.803701749798672
0.811372796214716
0.807813792369711
0.80838226123052
0.801259110162254
0.803412371990006
0.80181729226655
0.780627345753631
0.720718010398438
0.749076942641741
0.920056917944898
1.24515401920672
1.64520696717008
1.85512864058753
1.8504751016637
1.60399863898576
1.08175764358788
0.943924471843155
0.892405669907658
0.864770912304057
0.844873609291667
0.82904528584592
0.811869713522093
0.807813792369711
0.811372796214716
0.808507562482086
0.818905482964958
0.811101620198549
0.807670289325649
0.810950202118508
0.821348122601375
0.819471580105234
0.821010538410033
0.822530894985139
0.827426860951686
0.827070675030645
0.837468595513515
