0.741514218543727
0.728801803062271
0.729459154846136
0.736290719040778
0.72193492409966
0.728109136510437
0.735304691364981
0.724564331235119
0.717697452272508
0.723284942435359
0.732088561981596
0.724564331235119
0.720033498284004
0.72452901646715
0.721418831387673
0.72317899813145
0.722521646347585
0.728801803062271
0.725444414607008
0.722556961115555
0.756128059840839
0.749989162198031
0.780895539019886
0.789041806782257
0.806249740446858
0.826521701442761
0.7969544999764
0.788126408642399
0.781107427627704
0.76481489210296
0.747137023474548
0.734753283885025
0.720326859407967
0.722192970455653
0.726101766390872
0.711851915753663
0.723684247863231
0.731936459929511
0.712074647341687
0.711957860057574
0.704680832686902
0.658291374176256
0.696825140221028
0.862857894720353
1.15811170382241
1.56464289572033
1.83729178397273
1.88933130502976
1.67369326296719
1.08566234918591
0.923318144531016
0.859601179243995
0.809878804065915
0.776353863088686
0.766939049506639
0.763828864427223
0.737276746716575
0.746419885134829
0.743638375947346
0.743309700055413
0.742981024163481
0.75081224484172
0.738895654388353
0.745751690370879
0.741818422647779
0.75016573603794
0.745751690370879
0.761867652055714
0.767688716786674
0.75720918884046
0.756644152552765
0.777443049240738
0.768699216250356
0.779651464988095
0.780754279947947
0.797375491364622
0.809759230954146
0.817905498716518
0.826051766478889
0.826263655086767
0.831370367305662
0.853530125309481
0.846266726746591
0.854070689809291
0.849504542090207
0.854988873776743
0.85168848604968
0.831601156046177
0.842474718095426
0.846630717406493
0.83050112691392
0.83449139536522
0.809889647045948
0.790220822933326
0.786893177590737
0.784337185818895
0.764592160515024
0.749989162198031
0.737276746716575
0.741514218543727
0.73097490404169
0.725267840767049
0.732664441249431
0.728801803062271
0.724281813091241
0.731816886817803
0.736336876788833
0.737276746716575
0.741514218543727
0.745751690370879
0.752243735693475
0.755155660972794
0.76005048458382
0.760707836367694
0.758464105852335
0.775413993160943
0.766928206526554
0.758781938764182
0.753580125221403
0.779013013336686
0.766939049506639
0.764334114159064
0.760740365307978
0.760753994115777
0.748370254526254
0.754226634025183
0.749989162198031
0.757198345860375
0.749684958093984
0.745727218582995
0.741514218543727
0.749989162198031
0.740503719080045
0.747090865726493
0.73470712613697
0.743510745683207
0.732626340653752
0.733039274889423
0.727546886050396
0.73211303376948
0.731844144433402
0.720595748744046
0.724564331235119
0.719549934512382
0.717523664260274
0.729847617293937
0.725938821358723
0.72626749725066
0.728975591074468
0.731162320861686
0.731490996753585
0.725783933479025
0.739058599420522
0.745751690370879
0.750923460470466
0.762701577679487
0.791940103253789
0.813273992786267
0.826263655086767
0.795183490252699
0.784649447075378
0.786059251966952
0.76085993841972
0.750899289013187
0.729986090538164
0.725419942819075
0.716616323272834
0.728405283462109
0.711982331845517
0.728342711078485
0.719539091532248
0.714972943813164
0.720326859407967
0.719636978683846
0.663072196331032
0.675520993801066
0.793341250331373
1.05220962224924
1.48403244319086
1.78756075098063
1.87764550331679
1.78201504823349
1.23857155595242
0.969270497348829
0.861684750554935
0.832185392796979
0.801409432066979
0.785988622430981
0.763397030059036
0.749989162198031
0.756236789972462
0.749989162198031
0.741970524699799
0.749989162198031
0.754226634025183
0.754226634025183
0.754226634025183
0.749989162198031
0.758464105852335
0.758464105852335
0.762701577679487
0.769440826377959
0.757057086788436
0.775413993160943
0.777662995001047
0.787705417254297
0.77154578331847
0.784125297211014
0.796036316009
0.808420055598519
0.820803795188038
0.818924055332586
0.834260606624823
0.84303418272775
0.84067645075605
0.860163429703984
0.852731514453631
0.860163429703984
0.87287584518544
0.864457902259276
0.873147520349232
0.859563078648259
0.852617512997337
0.844935608543347
0.836324977472594
0.83050112691392
0.807320026466394
0.794028945889383
0.795493266012256
0.778643751352128
0.757106030364265
0.758814467704438
0.745708318450539
0.741514218543727
0.742149884367422
0.736312405000948
0.733039274889423
0.730423496561763
0.737276746716575
0.737276746716575
0.733039274889423
0.749989162198031
0.758811982207495
0.749989162198031
0.75391158694105
0.750002791005831
0.766939049506639
0.762701577679487
0.774414336677346
0.768267381882168
0.763625032971716
0.766672945998275
0.772317136558614
0.770127921274425
0.757198345860375
0.758464105852335
0.783280528607152
0.758184373536172
0.749940218622262
0.750744401133445
0.757757810492691
0.751024133449612
0.759827752995854
0.738969069752031
0.745751690370879
0.753764756213676
0.737276746716575
0.747528271750135
0.737276746716575
0.737276746716575
0.741025383447454
0.737192488372776
0.733452209125154
0.735793526461247
0.732012661121059
0.735877784805046
0.746533886591109
0.764882735811246
0.775413993160943
0.792363880469551
0.815941500517268
0.826263655086767
0.824112540398351
0.796392249516537
0.796481779184935
0.786781661631296
0.765809277262023
0.742619819331293
0.738711023396073
0.724564331235119
0.713997759117452
0.707614443926511
0.731550783309499
0.724564331235119
0.715258247784756
0.719824395503841
0.724564331235119
0.695521579964007
0.668026506167131
0.732579582244091
0.918997998864698
1.26473379241231
1.66514031613712
1.86655478133483
1.87161623679793
1.56840846489676
1.03709511903263
0.906238141461272
0.854524510468361
0.809175294533935
0.801219229419277
0.781208100607039
0.771176521333791
0.761525347355966
0.761196671464028
0.754226634025183
0.75206437602585
0.764448115615369
0.758464105852335
0.763790763831494
0.766939049506639
0.766939049506639
0.775517151637199
0.771627556165153
0.771730714641409
0.771176521333791
0.789940790286566
0.788126408642399
0.79847024917207
0.804918622243553
0.784703962306575
0.803603918675804
0.814605110989349
0.81076415876236
0.834738598741071
0.843213542395375
0.851427653865972
0.863221885379856
0.865319085498707
0.868638373358288
0.878688852764029
0.888350569391091
0.879574507791347
0.879674880439826
0.87287584518544
0.880332232223691
0.866568731185926
0.860163429703984
0.84318101345512
0.818677152287494
0.814176062448921
0.801792322859398
0.793646055097026
0.775413993160943
0.755807741432048
0.752257364501303
0.744111096738931
0.745751690370879
0.739547734847562
0.749334596241881
0.737276746716575
0.741514218543727
0.737276746716575
0.740854080932138
0.758464105852335
0.748386669161767
0.749989162198031
0.746039479839413
0.758464105852335
0.771176521333791
0.771584184244805
0.7636495047596
0.77055727014561
0.77146709663004
0.758540307043705
0.766939049506639
0.771176521333791
0.754226634025183
0.76405438184292
0.775413993160943
0.76427741376172
0.754226634025183
0.762701577679487
0.755467922229216
0.745751690370879
0.745751690370879
0.749733901669809
0.733112690253137
0.73223509237813
0.751450696493189
0.741514218543727
0.737276746716575
0.727085008238895
0.726609801950428
0.724564331235119
0.727267153734293
0.726356726588197
0.749111864653917
0.755323877329545
0.771176521333791
0.787908948379032
0.81267642755808
0.809313767778159
0.748082765388615
0.762701577679487
0.761968325035027
0.732963374028829
0.710023905301722
0.698878968419333
0.69183521528598
0.698297517496063
0.689637942849481
0.68661171578303
0.686427084790751
0.682662333755185
0.678753537819966
0.68331968553905
0.673992216459288
0.622865007383471
0.665260810953613
0.814364763442764
1.10632782647435
1.51259072969809
1.81419712703508
1.85638284398192
1.68398867773185
1.08804507075615
0.893381981410988
0.812660613584159
0.765032352366361
0.739015527830921
0.726387070362431
0.713937972561567
0.706169023936075
0.706185738902481
0.702276942967267
0.703376972099359
0.707171766578293
0.707272439557669
0.711422566882358
0.713915986270473
0.720326859407967
0.700340202383657
0.714910671760429
0.716089387580815
0.716225375328158
0.718604793259996
0.718876168092896
0.738341461080682
0.733775313361609
0.737684109296824
0.754069260648562
0.761951610068622
0.746909020561989
0.767547157383839
0.777886026919782
0.786561715871047
0.796601352296703
0.811329195050094
0.811000519158161
0.803718220462938
0.815610038797587
0.818489435136669
0.813551239605311
0.809313767778159
0.805361599922599
0.808699787914635
0.801781479879313
0.787702931757414
0.768539057045961
0.747680373802133
0.743494331047693
0.725498929838206
0.711851915753663
0.699139500272207
0.697808682399737
0.694902028445055
0.686427084790751
0.690664556617903
0.685777790159248
0.684471143743869
0.686427084790751
0.69326670613774
0.673095718452001
0.682189612963599
0.686427084790751
0.683477058915688
0.694902028445055
0.703376972099359
0.712153334029941
0.703458744946336
0.698783566764616
0.715404778181341
0.7066011586351
0.710509954570315
0.7177600246561
0.707375598033804
0.71227042164483
0.713432722829719
0.717822597039729
0.714242476996451
0.699734279672451
0.703376972099359
0.707614443926511
0.694902028445055
0.700579348607195
0.702328372039933
0.693524752493697
0.689838988477334
0.686427084790751
0.688790388417907
0.686427084790751
0.697335661277317
0.700027640796406
0.726242725131918
0.737507535456909
0.749989162198031
0.770323395246729
0.787371169706936
0.768121151816465
0.742926809263055
0.754981572629813
0.75619898970761
0.702097883630431
0.675224846849389
0.677463606370953
0.664386899898762
0.655716482272093
0.661002253827839
0.66497332181585
0.656764782000687
0.653317863876979
0.659883024232458
0.655316876513368
0.637761967486156
0.60594207735969
0.644507471352158
0.843048495047794
1.16564287324813
1.58907651053312
1.82956680792914
1.82846240846467
1.56981887045021
1.01392139222536
0.847234755282363
0.784269642441502
0.757405263474475
0.732425595356722
0.709755015965674
0.70090772416826
0.703376972099359
0.703376972099359
0.68297180918384
0.69959302060051
0.707614443926511
0.699139500272207
0.700204514967208
0.716950570820247
0.710662056622298
0.723363929454562
0.731192063974194
0.726740218042282
0.722059768536024
0.737276746716575
0.728801803062271
0.74774851784125
0.745333484810552
0.758553635520731
0.762701577679487
0.755362278256123
0.786333412627595
0.777864340959612
0.7919398029229
0.794718826613504
0.824237384834748
0.829658843806943
0.822026183259615
0.82730389766299
0.846027880853947
0.83050112691392
0.838976070568223
0.842939081403869
0.826263655086767
0.826263655086767
0.826263655086767
0.802427988683093
0.777331833612112
0.781897981331197
0.761952210730287
0.751559426624811
0.736271818908322
0.713880671502625
0.724216755210731
0.720307959275512
0.724254555475639
0.719688407756549
0.712819043297018
0.709260308883079
0.705001451426589
0.720658020796786
0.724564331235119
0.720326859407967
0.725862620167294
0.726503557315593
0.748066350753134
0.728489541805908
0.724547916599545
0.757773924797322
0.730149335901149
0.732036832578051
0.740183100340424
0.749247251739475
0.743502688530896
0.745751690370879
0.741514218543727
0.754226634025183
0.752358037480676
0.7463573127512
0.74547474388249
0.737328476120119
0.74113381324825
0.731621112514607
0.742551975623069
0.738643179687848
0.727106694199065
0.728801803062271
0.733039274889423
0.739957883255578
0.750662327955745
0.789924375650968
0.783888936815247
0.788609672083239
0.834303377883506
0.826263655086767
0.811546955644292
0.797674424144014
0.795199604557459
0.767892848573013
0.73715747393564
0.722714634823007
0.713047346540457
0.703376972099359
0.71349838137187
0.698069514583444
0.695314662349956
0.699139500272207
0.707614443926511
0.691444267341261
0.696010415060351
0.669698344565791
0.636989412922552
0.688862001796417
0.88979050057592
1.25413228870646
1.63951233722949
1.8677576686122
1.86218590957349
1.53264926936344
1.00425719010283
0.878572365810928
0.819418762415217
0.783082569138025
0.762881237678064
0.740878853050855
0.724542344944116
0.72948114113715
0.721663549266718
0.718332817765341
0.711851915753663
0.732110548272645
0.728394740812917
0.728415826111308
0.740992554176312
0.738127086975923
0.740335202392448
0.740006526500515
0.743915322435736
0.743771878197806
0.753476666414315
0.752811557808972
0.768025449830917
0.761943853247143
0.775413993160943
0.779551092339615
0.783888936815247
0.791249922198781
0.802419330869055
0.807504957789507
0.815094246416493
0.828629444210805
0.841013183800329
0.828792689573746
0.844691491326045
0.847451014222528
0.856648367541207
0.843213542395375
0.826393770847789
0.838976070568223
0.838383776664861
0.818709681227763
0.809313767778159
0.791780544711121
0.768846046977751
0.754460508924128
0.748316039625828
0.733039274889423
0.721517018870103
0.725251426131475
0.711135077744715
0.707584700813971
0.698541634713414
0.716716996252148
0.699139500272207
0.699139500272207
0.716089387580815
0.707614443926511
0.718055871276948
0.711851915753663
0.728801803062271
0.723583875214797
0.71804472796597
0.725210539708016
0.724569902890608
0.716423635128236
0.724564331235119
0.718072586243385
0.721647134631186
0.729511184580574
0.726541958242203
0.714158218652679
0.709216936962715
0.720326859407967
0.722674048730444
0.716089387580815
0.715801598112342
0.716048501157356
0.703376972099359
0.701980495684712
0.702350058000104
0.696257618436243
0.707614443926511
0.716089387580815
0.728356039555451
0.756896927584102
0.757225603476034
0.768758702475378
0.792363880469551
0.800333874722846
0.779727666179526
0.762296700596128
0.754960187000487
0.735163732623875
0.693446366136219
0.686427084790751
0.677952141136447
0.663379186262794
0.667945333981878
0.651324122565202
0.655150845322731
0.657310617825154
0.661219413760373
0.656987813919486
0.652527310173535
0.61746553470226
0.600580104612499
0.690458622846459
0.897830223372834
1.30004285410869
1.68066436709885
1.81683986264731
1.79490862536809
1.36995560384827
0.930822190971824
0.817061330774431
0.767673203143782
0.742465231782448
0.72113104191926
0.691797415021128
0.680728078668442
0.684636874603662
0.675833555388319
0.679742050992645
0.680874609064975
0.681057054891265
0.692490381903856
0.689714144040968
0.695195089238126
0.699321645767604
0.685916263403422
0.703376972099359
0.702208798928164
0.700636349335333
0.712438337670695
0.722481060254959
0.714334792492587
0.709040363122807
0.721424102712329
0.730338937887133
0.745751690370879
0.750322809083731
0.762701577679487
0.773775584695044
0.772051333381023
0.793567368408715
0.772708685164887
0.792879672850647
0.809596886583705
0.801637735310489
0.796601352296703
0.796601352296703
0.808580515133699
0.788530985394928
0.79637364971492
0.775666768192283
0.759627007698892
0.735769655335063
0.734278077596575
0.717656866179904
0.701035654763233
0.692889387000866
0.699139500272207
0.68371650547012
0.674741283077672
0.673016731432853
0.673714669309295
0.665280311747557
0.673426579509929
0.673714669309295
0.676061257969981
0.690278196486416
0.684253383149514
0.686427084790751
0.680212286287381
0.680540962179341
0.691984531510248
0.692919430444268
0.682189612963599
0.699139500272207
0.690664556617903
0.69393181474305
0.690664556617903
0.687407841141952
0.694902028445055
0.690664556617903
0.703376972099359
0.690664556617903
0.685416284996175
0.687711744915108
0.675626637774142
0.679206757817429
0.673714669309295
0.686397041347378
0.66171969249845
0.668789802254905
0.682189612963599
0.696450006250003
0.722108111450127
0.737276746716575
0.741090140997078
0.763198169597293
0.776663338517328
0.774493323696488
0.745751690370879
0.74601500805147
0.737472821350609
0.678346175239728
0.65469544015919
0.664188339767836
0.645432428298323
0.639814894692079
0.641852308255047
0.648289838346383
0.644052366519231
0.648289838346383
0.640700249388516
0.648289838346383
0.626190467560378
0.580691635070578
0.601248299376406
0.762527572186727
1.05736325857818
1.49004477726226
1.78593507032988
1.83883539144554
1.64155936138036
1.06071504430861
0.850733703140761
0.781338817029844
0.732517910852894
0.715511323147039
0.695174003939741
0.678881468414997
0.676365462074029
0.673714669309295
0.673714669309295
0.671256564689149
0.673714669309295
0.678588107291031
0.676658823197994
0.681046211911182
0.673714669309295
0.690178507349352
0.677794767759828
0.698625592726273
0.699139500272207
0.69831084597303
0.700296830463317
0.699139500272207
0.714274705605839
0.720326859407967
0.728801803062271
0.728801803062271
0.727693716777824
0.745751690370879
0.750890631199197
0.771420638551092
0.784095554098532
0.765868463156193
0.779651464988095
0.782696291856152
0.786605087791387
0.787588930301189
0.781830137622972
0.793141105696014
0.785290384223658
0.778578693471617
0.775413993160943
0.757633266387111
0.745664946530199
0.720810723510474
0.729943018948656
0.70247768826423
0.696129988172121
0.683746248582604
0.675599980820237
0.671881687863621
0.675409477841633
0.666744932201344
0.662039710576302
0.676534579423391
0.665239725654991
0.661053682900491
0.673714669309295
0.683401458386029
0.6770175425333
0.679663063973444
0.676360190749435
0.68795149180043
0.688415254447027
0.682189612963599
0.70071533635454
0.686427084790751
0.687100550879296
0.687461455380591
0.690680670922584
0.683127297725347
0.689382081659536
0.692962201702824
0.677610437098438
0.690664556617903
0.692946087398141
0.688711701729595
0.675338848305669
0.680894109859158
0.688730902192885
0.664601574334416
0.669786672910786
0.673733869772583
0.665239725654991
0.679305245630755
0.687648872200645
0.718992955376951
0.730464382985222
0.737531706913962
0.768051806454021
0.784948680185593
0.749989162198031
0.754738056074173
0.750591998750638
0.7274309997589
0.695065574138831
0.674097860432492
0.654662911218932
0.6450929094263
0.645551400748367
0.649987733037328
0.637603993447809
0.63698662709478
0.64518273942559
0.635577422864927
0.640711092368602
0.627934820330271
0.56377924769599
0.597080856423412
0.76489893296548
1.06233398304845
1.50695904947084
1.78969364904777
1.8365151594079
1.63574974029208
1.04259818515283
0.8507367892995
0.788795204068136
0.727940920153717
0.702844765082752
0.694291435071021
0.67782699636919
0.661002253827839
0.669477197482143
0.664128553211937
0.668037349147155
0.663838878908367
0.665196654065543
0.669477197482143
0.677952141136447
0.67910638516895
0.678777709277016
0.686923977039388
0.694565595731646
0.686266625255526
0.690664556617903
0.707614443926511
0.707614443926511
0.703376972099359
0.711851915753663
0.722459374294788
0.727025522013874
0.745751690370879
0.746870619635412
0.753436380652584
0.754688211505852
0.762834479268224
0.783693162512049
0.771176521333791
0.779651464988095
0.782707134836238
0.783888936815247
0.779651464988095
0.777483635333273
0.775413993160943
0.766939049506639
0.757380491355816
0.756954228643174
0.727949277636983
0.724369157593705
0.695364206587512
0.703376972099359
0.689092407356024
0.682189612963599
0.662548046466796
0.660513719062399
0.648289838346383
0.653353478975842
0.651150334553049
0.66628802538354
0.656045158164077
0.660611305883164
0.661002253827839
0.660735849988642
0.669477197482143
0.674638424932356
0.670729628997139
0.673714669309295
0.684517301491893
0.680190600327237
0.676281804392019
0.682189612963599
0.673714669309295
0.677267832067816
0.686427084790751
0.67792518385168
0.673714669309295
0.674345063808393
0.670436267873173
0.675002415592259
0.665239725654991
0.671769571242467
0.665549801745364
0.665239725654991
0.648289838346383
0.660024583635246
0.661002253827839
0.644372684927959
0.648298195829585
0.652527310173535
0.64895554761346
0.656764782000687
0.688018434515997
0.701725235156471
0.711851915753663
0.728421097435896
0.748951104787857
0.753379980586277
0.727859447637649
0.72210961310435
0.708184451208031
0.690839245622594
0.652899658316646
0.63697947093502
0.628132179137606
0.641335614881386
0.622865007383471
0.616405791331963
0.629446882705358
0.624429399823953
0.630104234489229
0.628916560523836
0.622286642618801
0.583229627702705
0.559223942956986
0.639160411585611
0.862386540951247
1.26143236905989
1.63612837466997
1.79571507589514
1.75332227563414
1.32633017319746
0.909614046868539
0.799710553533699
0.734661569050705
0.693272878454976
0.681975238858838
0.665468329229337
0.656321804321581
0.649833145488458
0.654564123074744
0.663860264537643
0.654284991420369
0.641966009380464
0.647697244112134
0.659508490923318
0.65983716681525
0.656764782000687
0.661002253827839
0.665239725654991
0.682039996408453
0.666196310549139
0.689050619939891
0.692630739983175
0.684962764667879
0.704028451896902
0.70125530019262
0.711851915753663
0.721785307544518
0.735298819378656
0.741514218543727
0.754699054485937
0.758895339558801
0.771546383980021
0.774900385945892
0.772861087547768
0.785059895814175
0.786626773751537
0.782060626032448
0.779651464988095
0.785640746075725
0.779651464988095
0.765844592030038
0.758464105852335
0.762264471986758
0.749880732397238
0.725004823417405
0.726211097184338
0.71521178970581
0.70882071769345
0.707614443926511
0.685916864065206
0.673714669309295
0.677952141136447
0.689276738017351
0.687486227499368
0.689203622984532
0.702171599325094
0.682335843029241
0.699139500272207
0.69797102677012
0.710939003110686
0.703376972099359
0.706044179499671
0.711851915753663
0.703376972099359
0.718645679683454
0.717441891413396
0.707614443926511
0.720326859407967
0.711118963440094
0.711851915753663
0.707905319553593
0.703996523618371
0.710903688342717
0.706337540623633
0.70658813048898
0.71222087740733
0.711851915753663
0.695847770359117
0.694902028445055
0.70238845892668
0.694242191164309
0.694902028445055
0.707614443926511
0.703376972099359
0.691319422904895
0.695885570623985
0.704689190170226
0.696542922407857
0.692932458590314
0.699139500272207
0.721937409596504
0.75679038261838
0.76460797448881
0.766314526993913
0.797193045538283
0.809248109235862
0.805799306277169
0.790196951807438
0.77643285010789
0.780998997826973
0.740629164178122
0.720326859407967
0.715659738378669
0.703376972099359
0.709358796696404
0.698221616635515
0.696080443934566
0.695162560297874
0.690800844696141
0.703376972099359
0.70688894810353
0.695956200159971
0.638343118078622
0.673631995469709
0.81057035214398
1.0875887956698
1.52772948722002
1.848105642316
1.91264620805871
1.75975466903193
1.17522955893735
0.945947454317899
0.862756237898102
0.820071143205325
0.793453366952437
0.774012846083424
0.773667154894195
0.7626151341697
0.759035014126413
0.759968711736942
0.755402564017856
0.763548831780228
0.770657943124983
0.775413993160943
0.783750163240188
0.783888936815247
0.783888936815247
0.797726153547574
0.78255841927371
0.796601352296703
0.815662068531994
0.813551239605311
0.816319420315866
0.815832470054716
0.826263655086767
0.826263655086767
0.838976070568223
0.847276925879499
0.856428722111797
0.863569461404231
0.874793084974909
0.878602108923368
0.902538147975504
0.894008388759048
0.904300800216067
0.898300676148352
0.897379105691262
0.905998995237903
0.898300676148352
0.889825732494048
0.898091273037295
0.893525125318212
0.8940632043212
0.87287584518544
0.871686586715859
0.853009361934687
0.84757645932068
0.829718330031907
0.824864993506132
0.823096168948319
0.813551239605311
0.826263655086767
0.809313767778159
0.82178146538059
0.818362105203421
0.816886641769572
0.824487674369264
0.819348132879218
0.834738598741071
0.834542524106982
0.846597587804574
0.843213542395375
0.847451014222528
0.856631952905634
0.847073695085659
0.85168848604968
0.843213542395375
0.851079777510741
0.861100814134844
0.855925957876832
0.845856278007803
0.842822894781541
0.849703102221119
0.848375070176418
0.838722694875161
0.843213542395375
0.842542862134543
0.843213542395375
0.843226870872341
0.839606765398161
0.839620093875131
0.839948769767068
0.838976070568223
0.843213542395375
0.828222381961423
0.8266009887928
0.834738598741071
0.821666863262516
0.833774557356324
0.825628289593955
0.834738598741071
0.83050112691392
0.846749689856537
0.862362887306348
0.879334760906021
0.894290606571977
0.906016994377631
0.923725507111264
0.921810752818702
0.905710304776759
0.902538147975504
0.904918166569125
0.866838221183789
0.838161946069527
0.81773141037343
0.805462272901971
0.816359405746668
0.813551239605311
0.799466819497093
0.811850559086615
0.806926893355735
0.809313767778159
0.799288060491196
0.802632120469553
0.755783870305951
0.752248106025489
0.860175039045579
1.10813671931191
1.54375848758351
1.88034480469539
1.98933401836392
1.90250393096858
1.39113225463436
1.05248181522459
0.962961198183444
0.92190118347966
0.883214714721379
0.872017748104613
0.855925957876832
0.847250268925567
0.855670096686884
0.840345890028962
0.847451014222528
0.84009002883901
0.837533436405504
0.846756162504696
0.849588500103082
0.85168848604968
0.85444582378015
0.862881082334566
0.869461155671095
0.859669323283113
0.85999799917505
0.855762712513831
0.876129474502718
0.877113317012592
0.889825732494048
0.879872839909014
0.898300676148352
0.902538147975504
0.91594104484286
0.911013091629808
0.926846835501658
0.927962978938416
0.944454074594131
0.940805510180835
0.936636482723691
0.948623102051272
0.94576877816186
0.940675394419872
0.942188658118576
0.930358511174936
0.942742250764459
0.934699742140068
0.929372483499135
0.911013091629808
0.911765244406666
0.893639727436277
0.889730931501057
0.860631179501867
0.860163429703984
0.847451014222528
0.840195973142962
0.840524649034894
0.847451014222528
0.84541947264591
0.825431914628978
0.837601880775471
0.842168028494555
0.83545543674996
0.847451014222528
0.834917057416132
0.843482732062288
0.842615676836523
0.85076194459889
0.848706231565254
0.857509851111495
0.852513153197582
0.861669620092754
0.857730697864424
0.85458708285209
0.860163429703984
0.859481906463069
0.85204133339861
0.855901786419778
0.855925957876832
0.858897069050336
0.844175398614183
0.850397953938986
0.85430674987416
0.840923954462795
0.83701515852758
0.839949070097961
0.834738598741071
0.83050112691392
0.83050112691392
0.830818659494879
0.830512270224897
0.839315889771137
0.82760064527645
0.827260826073541
0.822026183259615
0.826263655086767
0.826263655086767
0.834738598741071
0.866551115226837
0.884320015178114
0.877113317012592
0.901966038377853
0.927680761125431
0.923725507111264
0.902538147975504
0.902538147975504
0.880210774276824
0.848658188982096
0.816098873893855
0.820007669829075
0.803186013446332
0.798162958909446
0.805076295951007
0.804172041122125
0.791788301532605
0.801332630213884
0.796683125143622
0.792363880469551
0.797340476927486
0.735174875934883
0.758512148435547
0.901147709246706
1.16528461994249
1.59380795414844
1.91005228139119
1.99460826342792
1.85782552992558
1.2740165743283
1.02373212474653
0.953856160360873
0.894954731334853
0.865175340929899
0.858132188458233
0.84607712476065
0.83825953289022
0.813492053711182
0.828083308055471
0.82477267801
0.829338825729089
0.835572224033961
0.842708592994419
0.839328617586263
0.835043403506909
0.846488857672825
0.838976070568223
0.85478752781812
0.86146668962984
0.859517521561991
0.85168848604968
0.863732106105399
0.869964520567889
0.866384400524601
0.868638373358288
0.870047277257224
0.881350788839744
0.88540054351601
0.906259226759838
0.91271535665271
0.916424308283642
0.92099045600273
0.927962978938416
0.927962978938416
0.93146102580389
0.926542631397611
0.931108779116695
0.921436519840442
0.919488035284112
0.923619863138188
0.919265003365253
0.907327327613444
0.897420292445631
0.885588260666896
0.873251579818042
0.857792369255349
0.860163429703984
