0.841891407541871
0.841891407541871
0.841299763523223
0.845844122353324
0.85374955197623
0.847323232399887
0.845844122353324
0.851867591229988
0.847430261090186
0.847134439080918
0.849796837164777
0.851653533849391
0.838341543429984
0.841891407541871
0.853560758657149
0.846328737681687
0.838719130068147
0.840815148194843
0.833985977918964
0.833985977918964
0.830033263107511
0.837938692730418
0.835383323336745
0.842992930950303
0.856166656173629
0.88192843504617
0.87789395560592
0.904889550638438
0.920568117132773
0.925571827229931
0.892231677249741
0.88932398527931
0.885371270467856
0.867464393095428
0.845844122353324
0.840387033433904
0.820919281385905
0.813309673772379
0.816941302513048
0.809948602979573
0.818175118673151
0.810540246998221
0.809703309093001
0.810269689050245
0.806316974238792
0.783418331658796
0.743526916077914
0.785862074199596
0.980112854201505
1.35566071880365
1.75687252991632
1.93033585423199
1.9330400594284
1.62871410505174
1.0846142909901
0.968559728100439
0.931116653222818
0.902233124999375
0.881506292729869
0.869560411222043
0.855763805474063
0.855467983464683
0.855172161455415
0.850923624634582
0.85853323224822
0.861654981599137
0.86560769641059
0.861654981599137
0.869208088645275
0.878113985431089
0.876521874249516
0.88413148186307
0.87746584084495
0.881418555656403
0.887196730646547
0.886900908637227
0.901182129713669
0.906072838675846
0.907061360949207
0.92059935363886
0.920996231893632
0.928605839507269
0.952026306366609
0.949451645356328
0.96216004686772
0.968378281508374
0.980236425942734
0.98814185556564
0.98814185556564
0.993435415227383
0.996047285188547
0.992094570377094
1
0.991937013564099
0.98037469113912
0.972330996319827
0.94758162949979
0.926949881030992
0.918314542193164
0.898846790145165
0.881292235349609
0.869560411222043
0.864159822870114
0.861654981599137
0.860798752077309
0.85318914446367
0.854278722982591
0.853780788482318
0.854076610491698
0.854372432500966
0.866526398944705
0.857702266787684
0.864097349857827
0.86560769641059
0.865858962741958
0.864052794179815
0.878724921066344
0.871586609609243
0.87022784742479
0.869560411222043
0.87746584084495
0.873733155858671
0.87746584084495
0.878277514688789
0.87746584084495
0.873513126033497
0.87746584084495
0.869560411222043
0.869560411222043
0.87487923494519
0.873513126033497
0.862429446492183
0.865129053526924
0.873147484284701
0.861654981599137
0.858111089931945
0.868151120914783
0.869560411222043
0.895996973024557
0.913808766596301
0.909087559336576
0.930205297415982
0.952567422262561
0.949035475484961
0.924016924999157
0.916407317385614
0.909087559336576
0.881442445435586
0.854353140884358
0.850394453628221
0.841891407541871
0.836749432248326
0.827565630787417
0.826080548296058
0.822328571693165
0.823707999776671
0.814222403861698
0.828057592842895
0.817482418409
0.772710864473311
0.758985452746856
0.819985410081956
1.04356390080487
1.45315471094271
1.83534205353807
1.93128119510972
1.89014771767429
1.49172007845746
1.04130990221251
0.945610557397637
0.917659050879784
0.886924798416298
0.871497498253218
0.849796837164777
0.845844122353324
0.834369537001922
0.837938692730418
0.839941001338659
0.840620382430997
0.842710428112817
0.841891407541871
0.844049898680773
0.852251150312946
0.856154711284038
0.856469824910139
0.864385825140078
0.861654981599137
0.873513126033497
0.876912780059615
0.870132763624083
0.878814032422408
0.881418555656403
0.901182129713669
0.897229414902216
0.903083382076461
0.916992988959482
0.91830259730361
0.930878706063486
0.945379956965118
0.960894994201642
0.964551887003719
0.975944707726334
0.976749034843134
0.97552256541016
0.972330996319827
0.981589215682503
0.96607417844607
0.964361719402301
0.961000648609608
0.937876003759424
0.91191945912302
0.900357136697928
0.884842099461495
0.865374347413497
0.849921783189351
0.850155132186332
0.838592809761352
0.833036038878762
0.836692931680835
0.827622131354908
0.826080548296058
0.818175118673151
0.833985977918964
0.833985977918964
0.838870714436345
0.837938692730418
0.845503744666044
0.841846851863859
0.834488510581701
0.845844122353324
0.850639747514793
0.846982854712608
0.857702266787684
0.845844122353324
0.849796837164777
0.85374955197623
0.857702266787684
0.856663216391457
0.85844549517453
0.850244243542356
0.845844122353324
0.845844122353324
0.846284182003773
0.849796837164777
0.840859703872773
0.845844122353324
0.841891407541871
0.835905147616032
0.837938692730418
0.836496791634696
0.841891407541871
0.83228546376485
0.830033263107511
0.82633916135445
0.833985977918964
0.826413579256321
0.82940441013798
0.829108588128687
0.815442900849877
0.824564229298569
0.819987259679978
0.812114440845544
0.819029973912646
0.807570082015426
0.822127833484605
0.814222403861698
0.810269689050245
0.814222403861698
0.817949116403188
0.841891407541871
0.85374955197623
0.861654981599137
0.878599975041883
0.903429732208483
0.887421358634127
0.857702266787684
0.864375254532932
0.855573637872649
0.832448993022464
0.806789644677661
0.810269689050245
0.802602206586894
0.790506114992979
0.798411544615885
0.798411544615885
0.789157923415673
0.796813460989544
0.798411544615885
0.794458829804432
0.779217574396104
0.732386735968996
0.755356572570628
0.90603008093247
1.22536943884958
1.6557684222379
1.88751423118382
1.92493526588006
1.71475470471807
1.14506493840084
0.959572542001203
0.914827151093451
0.883501254611206
0.860885114868441
0.841891407541871
0.826080548296058
0.825393820476703
0.818566024483239
0.822222917285312
0.825879810087491
0.819168239109032
0.822127833484605
0.833985977918964
0.832601951673069
0.8356658261742
0.833985977918964
0.841891407541871
0.833985977918964
0.837938692730418
0.849796837164777
0.853251617475957
0.857500154296784
0.861561272080763
0.86560769641059
0.868875057685022
0.884390094921454
0.891999702535093
0.88932398527931
0.90535027618794
0.912664061792087
0.919453274552447
0.935197062623511
0.940709277828202
0.948614707451108
0.944352851458462
0.948641345794733
0.956520137074015
0.949193032297943
0.955645990217912
0.951397453397078
0.937201220829548
0.92666003146652
0.907192279418521
0.891677242182089
0.87746584084495
0.84878902327475
0.848372853403259
0.840226728056355
0.825960200433947
0.822127833484605
0.817703822516614
0.809502570884329
0.814222403861698
0.818175118673151
0.807971558432624
0.814222403861698
0.814222403861698
0.822127833484605
0.826080548296058
0.829214242536565
0.830033263107511
0.826307924848356
0.830101708564483
0.841527140075521
0.837938692730418
0.834941889403962
0.836686959236116
0.841891407541871
0.835829355431931
0.839752208019577
0.840974079290063
0.837938692730418
0.829107213846353
0.833985977918964
0.833651572676471
0.826041965062841
0.825823309519893
0.826080548296058
0.829184380312699
0.824935843491978
0.823568360298064
0.815958752684425
0.814222403861698
0.811894411020324
0.810269689050245
0.810269689050245
0.806316974238792
0.810711122983027
0.810269689050245
0.806467184324657
0.806316974238792
0.803106113531851
0.799449220729778
0.797078046492725
0.802364259427338
0.798411544615885
0.792237865653243
0.791942043643976
0.798411544615885
0.795303114436781
0.802364259427338
0.803122181268443
0.822041470693247
0.821788830079658
0.84916201175045
0.855840971940494
0.884144801034882
0.870174570737316
0.843709520993493
0.845844122353324
0.844301165012141
0.822127833484605
0.805365660916256
0.798411544615885
0.798771213919773
0.802172717543478
0.782832660084832
0.793403236356346
0.796764307149069
0.802364259427338
0.794458829804432
0.792217199754351
0.774878551937025
0.718704505638201
0.751308298643005
0.898632681099988
1.2098980066605
1.63899657802631
1.8898734605314
1.93259080345403
1.73697719008574
1.16340273076191
0.973537275169324
0.918301223021276
0.890928041350446
0.867354615840514
0.845844122353324
0.835447170631294
0.834442580621355
0.824341450908727
0.829459536423138
0.818453023348152
0.826080548296058
0.818802597360462
0.833376416566042
0.830033263107511
0.835187183290535
0.846802782402876
0.844051272963106
0.85374955197623
0.845844122353324
0.851069236557984
0.857702266787684
0.859063777536803
0.861654981599137
0.86560769641059
0.877259130191593
0.88486873780512
0.899585420369662
0.897229414902216
0.905134844525122
0.917574062370872
0.926869490684542
0.935081312923975
0.944661992639655
0.952567422262561
0.95335520632742
0.959488927774511
0.960276711839257
0.960472851885468
0.953358430207459
0.955137485110379
0.938730858998918
0.931417073394772
0.916197858167496
0.899104028921329
0.877853998090258
0.861654981599137
0.85136828244738
0.830928075862555
0.832787996427412
0.825777379559661
0.822127833484605
0.825792073013807
0.822712130776141
0.818175118673151
0.819775950864204
0.825071360123697
0.823895418813469
0.827969855769316
0.833985977918964
0.827378211750669
0.84289324898713
0.841891407541871
0.837938692730418
0.845844122353324
0.845662675761259
0.845844122353324
0.845071031742612
0.845844122353324
0.843114653094602
0.843551964180499
0.841891407541871
0.845844122353324
0.840486715397073
0.836829822594888
0.84270445566802
0.837938692730418
0.830033263107511
0.833985977918964
0.833985977918964
0.817552713463769
0.825118664366263
0.819432824612213
0.823681361433046
0.814222403861698
0.822127833484605
0.816663397838056
0.818175118673151
0.810269689050245
0.822127833484605
0.814550836659498
0.814255014650119
0.818175118673151
0.809710655820017
0.818175118673151
0.824929871047183
0.833985977918964
0.848054515897254
0.867522267945253
0.888608769518421
0.902488989493091
0.875411629831681
0.853018268478864
0.860784058623162
0.841751768063151
0.826392913357379
0.811625702670067
0.806316974238792
0.804229677121579
0.799751015183842
0.794458829804432
0.794458829804432
0.790506114992979
0.793366027405381
0.799545678812739
0.793620517616879
0.786708683745653
0.735168107632634
0.750831505357022
0.91112839951387
1.22595231019316
1.65083173164987
1.89110405281103
1.92556734272972
1.72181775097229
1.15749088873941
0.972772006601324
0.919704540883815
0.882535247834559
0.864958177542118
0.848735746587471
0.837938692730418
0.830033263107511
0.830033263107511
0.837109101552213
0.833985977918964
0.837938692730418
0.832268920712846
0.835925813514919
0.837938692730418
0.836682361073576
0.844791752785285
0.845844122353324
0.841891407541871
0.850126644244799
0.85374955197623
0.853322811497593
0.856979704299779
0.861654981599137
0.862979283397484
0.87512315454943
0.883465419942656
0.895027742367635
0.898684635169822
0.9102469575948
0.924898418582389
0.925466172821965
0.937300427477368
0.944661992639655
0.945301416216348
0.955904603276296
0.963514210889909
0.958058496252735
0.952567422262561
0.952922493403987
0.95070935129545
0.929679350289712
0.920945703770935
0.902223029707692
0.881418555656403
0.865228735490094
0.85374955197623
0.842104090640022
0.834494483026398
0.821323506367805
0.818175118673151
0.814222403861698
0.810269689050245
0.814222403861698
0.814222403861698
0.802364259427338
0.815300037491058
0.818175118673151
0.814708393472394
0.818365286274566
0.82202217907664
0.833985977918964
0.833985977918964
0.830033263107511
0.832611147998033
0.833985977918964
0.840010821077963
0.840115101203594
0.843371891870767
0.837938692730418
0.838827533040666
0.837345674429436
0.841594211250271
0.837941441295084
0.842185855268918
0.830623532843825
0.830033263107511
0.836756778975455
0.829036019824744
0.828259705333901
0.830033263107511
0.830033263107511
0.826080548296058
0.823123702485152
0.825380501304891
0.815030853825498
0.822019430512085
0.818362537709899
0.814705644907826
0.817396055617755
0.818175118673151
0.819545825747195
0.815888932945122
0.81820313129922
0.811964230759627
0.814222403861698
0.820380914054619
0.834793053600431
0.850308090836864
0.857917698450502
0.869399630528919
0.900429705001989
0.894620768821182
0.863590694348145
0.855174910019969
0.858428053155739
0.839794015132923
0.816373548273532
0.815728152251999
0.813012477480742
0.807231078610444
0.806935256601082
0.798411544615885
0.814195765518072
0.813684036530413
0.810834694725269
0.810269689050245
0.805160324545121
0.750335895770233
0.747026252066993
0.850756819832603
1.10855965101639
1.54809005814503
1.86808226213965
1.93896934347213
1.84124390359864
1.34564293465886
1.01727025402492
0.938588470955644
0.913040274148029
0.877711610046981
0.86300042461189
0.855390816998251
0.847781209384723
0.844124316582538
0.841891407541871
0.837938692730418
0.837938692730418
0.846380640086814
0.842132103265981
0.849796837164777
0.850147785459315
0.856408726180072
0.857702266787684
0.854987966298684
0.85374955197623
0.863485039940237
0.865308650521079
0.873513126033497
0.87746584084495
0.878405209278007
0.888680438855633
0.901182129713669
0.901234032118698
0.905134844525122
0.919866220543697
0.935085435770927
0.935625177384481
0.953665721790863
0.964425566696921
0.960472851885468
0.964425566696921
0.971062719773473
0.971284599196585
0.965176141810804
0.980236425942734
0.971854203034167
0.956520137074015
0.945094705563087
0.92708402338049
0.909232272293445
0.898549593853564
0.880697842766274
0.867519519380585
0.855957196955557
0.839387940553226
0.846997548166785
0.841891407541871
0.834547759713762
0.833985977918964
0.826080548296058
0.826080548296058
0.833985977918964
0.840974079290089
0.835199128180126
0.835494950189394
0.841548281290037
0.845844122353324
0.844287845840329
0.844412316549326
0.85374955197623
0.849128026679698
0.849796837164777
0.853826718442664
0.853968207519177
0.857702266787684
0.856891967226089
0.85374955197623
0.849796837164777
0.849796837164777
0.849762376778448
0.849796837164777
0.845844122353324
0.839010353915064
0.848245158814245
0.838418709896418
0.841707212385253
0.830144889960164
0.834393426780992
0.838641963601733
0.833985977918964
0.830033263107511
0.822127833484605
0.830212860101673
0.826492595320549
0.824606036411845
0.816579783611364
0.825197680430493
0.837351646874233
0.822419057331522
0.841882211216948
0.861054141255658
0.862251223780248
0.874789648273737
0.902759072125608
0.90661855273419
0.869166756847401
0.869362421578032
0.871931585459097
0.848606677716006
0.824100755184554
0.816786969580369
0.801567754353131
0.802261828899612
0.802170867945794
0.794458829804432
0.800794188426957
0.801283401917768
0.798411544615885
0.796131331332652
0.796443221078399
0.758922556083607
0.730048172520364
0.791811073509881
0.995510188811376
1.3764608633497
1.77227261309051
1.91290439586298
1.89866413459719
1.54978728641922
1.05104089534274
0.940277990851725
0.908265790200962
0.87700559061125
0.857702266787684
0.844344346407819
0.833985977918964
0.833985977918964
0.81939973850833
0.829716775199302
0.83001259720857
0.833710821808526
0.830033263107511
0.826947348425145
0.839101314868772
0.846879948869308
0.83749451023297
0.849649375643468
0.848190032528973
0.849796837164777
0.858717427404838
0.856982928179908
0.854596585173247
0.869560411222043
0.873344998613352
0.884907321038336
0.886131041906666
0.892221106642595
0.902432013610174
0.91369851402585
0.922955359106249
0.928851133393842
0.940709277828202
0.944661992639655
0.948614707451108
0.955989591785321
0.960707575164787
0.956581235803968
0.956163216334681
0.952567422262561
0.949563272209089
0.930095520161091
0.924026121324194
0.898784792448454
0.881729546435505
0.86560769641059
0.852520333978703
0.837938692730418
0.831308411065271
0.821786081514991
0.814222403861698
0.814222403861698
0.818175118673151
0.818175118673151
0.813085045784636
0.814222403861698
0.816446116577441
0.818175118673151
0.818175118673151
0.820791586796778
0.831073687785958
0.833241375249784
0.83048204376731
0.837938692730418
0.837938692730418
0.837938692730418
0.843640600220837
0.839999351503948
0.837938692730418
0.831655236512923
0.838055816712287
0.837938692730418
0.831476538485524
0.839086146099163
0.830033263107511
0.833430168568867
0.829773275766794
0.833950143250415
0.822127833484605
0.825453069608842
0.826080548296058
0.819394241379031
0.818175118673151
0.818175118673151
0.822388296140897
0.810269689050245
0.812967921802766
0.813263743812119
0.806979812279076
0.814589419892613
0.822056639462968
0.852626412037511
0.848755937170757
0.848980565158476
0.878082273609424
0.898366297663734
0.892731461347922
0.857748672063492
0.858340316082139
0.852388041227073
0.838694341322317
0.809499822319752
0.805842929517589
0.790506114992979
0.790506114992979
0.786966821488351
0.782600685370072
0.785548334856052
0.781249745228098
0.784956690837406
0.78861358363959
0.784365046818756
0.742167730241939
0.722875400676934
0.783019076826491
0.98743890501596
1.39030017518014
1.76652012581144
1.90517169182279
1.88137876346795
1.52587443384998
1.03812303461456
0.937789217316775
0.894680493268917
0.869770345755527
0.845844122353324
0.826080548296058
0.821143909373648
0.822127833484605
0.817782838580843
0.810366147133286
0.821928469558265
0.822623019420226
0.818175118673151
0.823214663438891
0.830033263107511
0.834581744784614
0.835964396748136
0.837351171558771
0.836551917919894
0.844073313144378
0.858497397579557
0.846842739918536
0.853953038749458
0.865515361174547
0.869560411222043
0.869560411222043
0.884391469203788
0.895953791628845
0.899610684430954
0.913040274148029
0.920945703770935
0.935791455206797
0.939511296336761
0.939463041463006
0.952567422262561
0.956520137074015
0.960458158431322
0.95623900851878
0.957097087638516
0.955647364500134
0.948614707451108
0.935732681390355
0.924466180974531
0.901500942535475
0.881418555656403
0.866950390858789
0.852740363803869
0.838652058893398
0.829615718953798
0.822249555628937
0.822127833484605
0.821657911610288
0.818175118673151
0.812392820836171
0.81681773077092
0.823781043396216
0.820178801563725
0.823835694365799
0.832573939047038
0.82496433143351
0.833985977918964
0.830033263107511
0.834214728753594
0.833985977918964
0.845118335985288
0.845185407159926
0.841891407541871
0.845844122353324
0.846704474722153
0.85374955197623
0.845844122353324
0.839457760292532
0.843114653094714
0.844916698809859
0.845844122353324
0.845844122353324
0.837938692730418
0.841891407541871
0.849245150661664
0.844996613840846
0.832319924151067
0.835060387668166
0.841891407541871
0.833985977918964
0.837938692730418
0.831363537350543
0.832951525685284
0.830771893331895
0.833985977918964
0.830180249313247
0.830033263107511
0.837494034917507
0.84115092771958
0.86560769641059
0.873513126033497
0.886068093578892
0.903211076665534
0.919212578828337
0.914118383093046
0.882560036580353
0.890169644193904
0.880868718751101
0.853241522184368
0.841891407541871
0.829695633984785
0.822127833484605
0.823057106625979
0.818175118673151
0.818175118673151
0.818175118673151
0.814222403861698
0.811814020673762
0.812766708278519
0.817222431068282
0.75955278333537
0.767872956882918
0.874556671262952
1.12003006185855
1.56104502449496
1.88626006944807
1.96342331193385
1.85664504073217
1.38258225758666
1.03380230147585
0.959471485755809
0.923428980176105
0.90195569563996
0.88460737618207
0.865139624134182
0.86577994667773
0.861778553341377
0.860816194096097
0.857702266787684
0.86560769641059
0.86560769641059
0.863257663387985
0.869716118437128
0.876143388644587
0.873513126033497
0.880251810671129
0.881418555656403
0.885371270467856
0.889044706321983
0.893260157038821
0.897229414902216
0.901182129713669
0.898133423982184
0.913040274148029
0.919450050672318
0.919154228662999
0.940487398405124
0.944661992639655
0.945935766315194
0.962428755217846
0.97955429628584
0.984575448401711
0.984279626392432
0.999794663628863
0.992595728757498
0.991297589987309
1
1
0.998315553582301
0.990122123992719
0.972930462381068
0.956330444788283
0.936756563016748
0.924109260235308
0.906127541309713
0.896636871916925
0.889225677598472
0.885765400158074
0.869560411222043
0.86560769641059
0.866889292128722
0.864809817054161
0.86560769641059
0.86560769641059
0.861654981599137
0.866799705457235
0.875673466770195
0.872912761005499
0.873513126033497
0.87746584084495
0.877178739845025
0.888741062270012
0.886250015486421
0.881418555656403
0.88932398527931
0.887137481514451
0.885371270467856
0.893276700090763
0.891977662353819
0.881418555656403
0.893276700090763
0.885782842176772
0.881418555656403
0.881598627966133
0.888848090960298
0.875828275018632
0.8832361937925
0.873513126033497
0.883077738012746
0.87746584084495
0.881967493594962
0.874919192460627
0.873513126033497
0.872698703625014
0.872475925235258
0.86978318961188
0.877392797225406
0.904397113267496
0.920281016132742
0.910048068984037
0.94089299766913
0.964425566696921
0.958111349289024
0.921280584328993
0.922458798888253
0.923681145474339
0.894465061606208
0.864356438231791
0.865277889330569
0.849762852094024
0.846105959291951
0.856029289944
0.849796837164777
0.843040710508413
0.845461462237014
0.850267658005853
0.845844122353324
0.843511531349487
0.804952291274057
0.777780695114066
0.828432327587362
1.0311213040856
1.4285810352631
1.82511624645869
1.95655698437168
1.94254457497365
1.60071518062731
1.09663427007839
0.992358732229206
0.954497162566833
0.919218551273134
0.898319468736602
0.891005683132456
0.87746584084495
0.868472682301029
0.873513126033497
0.873513126033497
0.873169524466078
0.872873702456709
0.885371270467856
0.87746584084495
0.883844380863108
0.88932398527931
0.89299234765539
0.894815059269483
0.897229414902216
0.897229414902216
0.905134844525122
0.905134844525122
0.91705223809153
0.917229561836706
0.920945703770935
0.935100129225008
0.936756563016748
0.944355124707553
0.957041486037671
0.970319491386661
0.976945650204823
0.984189140754187
0.994202058077674
1.00714750778191
1.00092419966325
1.01581085924581
1.0119876886214
1.01185814443436
1.00539509122282
1.0020340204299
1
0.991359164032839
0.974235472562805
0.953015303955599
0.93779608872855
0.919784931230378
0.902047080244847
0.892707571568853
0.885097963955327
0.881418555656403
0.882055230668636
0.876237521814181
0.871380374271573
0.873513126033497
0.872563662308869
0.877823660551038
0.879325286094342
0.875902217604825
0.876048728494985
0.88932398527931
0.88932398527931
0.88217922606206
0.897229414902216
0.897229414902216
0.893783830915961
0.900379176879179
0.898328189746064
0.905134844525122
0.897229414902216
0.913040274148029
0.893276700090763
0.905134844525122
0.901182129713669
0.907521187531785
0.901669493606686
0.905134844525122
0.893485260342028
0.901182129713669
0.897925339046497
0.89426844624434
0.894654278576358
0.894860090263003
0.891397487909188
0.895451734281668
0.887842126668079
0.888137948677426
0.881418555656403
0.893276700090763
0.889025414705376
0.893284945784425
0.916699915514768
0.922123494679124
0.934987128090024
0.964836663090153
0.973807357801836
0.94997854311382
0.934688557516092
0.932803848205295
0.918359573186641
0.902143114676822
0.878167262118451
0.876654642316709
0.861654981599137
0.857888311542211
0.857702266787684
0.85374955197623
0.852676041193789
0.85374955197623
0.857702266787684
0.85374955197623
0.848661804001088
0.800716598309457
0.798875917696703
0.906211899509763
1.15921445570817
1.60358092082566
1.94264442226739
1.99308542789736
1.88823324946861
1.39405647095134
1.06148372536109
0.984910804275448
0.958129266623079
0.927395014159593
0.915485866286848
0.903923543861868
0.898144893556203
0.885371270467856
0.892629030820086
0.885371270467856
0.892741081324125
0.897793046294906
0.900322676311687
0.891634536101985
0.897229414902216
0.911293354718043
0.907177585964434
0.91465442551085
0.916992988959482
0.915970481615309
0.916992988959482
0.920945703770935
0.928851133393842
0.928690352700717
0.940252675125698
0.947862282739337
0.944661992639655
0.965690144047536
0.966738390768575
0.980236425942734
0.993815750430101
1
1.00112953603436
1.00083371402509
1.0152729672301
1.02000564406371
1.01591836325169
1.01581085924581
1.0164562552674
1.00978786568461
1
0.985722002803685
0.970206965567256
0.952863719587404
0.932803848205295
0.926378003944528
0.911158788717475
0.896584494196207
0.88932398527931
0.881418555656403
0.873998216677531
0.872974758702211
0.880584366315736
0.878595852194885
0.872412077940674
0.871791470664915
0.87746584084495
0.87515254145772
0.87746584084495
0.888276213873734
0.878217790241147
0.881418555656403
0.893597310845862
0.893412216722487
0.885371270467856
0.899000647762503
0.890346967939058
0.885371270467856
0.897229414902216
0.893276700090763
0.895482970787805
0.893276700090763
0.894919814710687
0.893276700090763
0.888760829202195
0.893276700090763
0.88539975840939
0.885371270467856
0.885991402428038
0.880502601686843
0.882630331635231
0.881418555656403
0.875662420847476
0.879319313649549
0.875908190049622
0.87746584084495
0.875533827291591
0.874183310800815
0.876717115328887
0.865529155661933
0.873078563512271
0.869560411222043
0.86560769641059
0.873513126033497
0.863055550897046
0.86560769641059
0.863615483094033
0.883083235141919
0.896014415043259
0.907280915458858
0.913817487605629
0.925379810030609
0.944661992639655
0.952567422262561
0.914258497887117
0.91558919578133
0.916992988959482
0.885299177479575
0.871149773839035
0.863540166225509
0.859883273423324
0.848320950998344
0.840711343384706
0.845844122353324
0.849208417026256
0.846136720482465
0.849796837164777
0.849198745385755
0.84643899025212
0.78003939519612
0.796038520781039
0.900193028795686
1.150814739115
1.59354083817879
1.91942707019416
1.97880330785426
1.86262125703204
1.37374808180181
1.04463519000137
0.976076101511165
0.937716649012827
0.925386257790979
0.895627683744404
0.886450753695095
0.881418555656403
0.87746584084495
0.871527360477254
0.879155784391869
