0.787871950255605
0.804880915510612
0.810132890085941
0.806111356447938
0.809517669617278
0.818175957361947
0.820659439828293
0.820329229002267
0.815715075487296
0.821297260888651
0.828087286635637
0.83982167672362
0.853446929400981
0.840482098375672
0.852831708932319
0.857138252212958
0.867574399588532
0.872654367479698
0.883818738282408
0.900429690936304
0.892454425435382
0.898299019887679
0.906649697398017
0.900429690936304
0.904758834808639
0.898036610836737
0.894779703759865
0.900076879518583
0.891681000824856
0.879046380625573
0.879353990859905
0.858015881732563
0.834719108240759
0.848479964468289
0.831163388978951
0.831163388978951
0.816262494180874
0.811123522564019
0.803890283032533
0.797520870478353
0.805188525744943
0.801234793882025
0.796733643325527
0.813846813489612
0.821410263847109
0.825124187250772
0.825671605944358
0.823975350630875
0.818949381972423
0.837736206858355
0.848479964468289
0.83223562577449
0.826834245106616
0.836505765921012
0.835492532851285
0.851615070537459
0.835582935218004
0.835492532851285
0.83982167672362
0.838989248387343
0.852809108340624
0.838374027918681
0.826834245106616
0.831163388978951
0.829204724614522
0.826834245106616
0.829521132898131
0.827870078768038
0.822505101234282
0.818175957361947
0.831389394895779
0.835687140127204
0.849293585768871
0.882303287702384
0.89610054706397
0.893250450637481
0.929001039595071
0.928693429360739
0.915765001469547
0.904067014515681
0.894734502576537
0.864833512564455
0.809517669617278
0.814290027274051
0.800588174772394
0.788043956939829
0.792201094127939
0.784330033536157
0.78354280638327
0.785067055012505
0.782633778222698
0.790183426037727
0.78153894083548
0.727440947220294
0.728489372487097
0.819241978727296
1.0488661977575
1.47472693925601
1.85167628181363
1.96092053356575
1.89820186627707
1.39627963183639
1.05508604347427
0.950620364809023
0.919433723689853
0.875771877450358
0.848479964468289
0.842431964690801
0.831163388978951
0.827937880543107
0.821709076032122
0.819641202265432
0.822685905967779
0.835492532851285
0.851505861135108
0.844150820595955
0.835492532851285
0.845508067034134
0.848479964468289
0.85045243137514
0.850529031199437
0.863208852582105
0.861467396085293
0.865796539957628
0.871762935417571
0.870636699389431
0.874454827702297
0.878888176483832
0.895276916776905
0.900429690936304
0.916719230813447
0.92074076445145
0.926404554170312
0.924454687855122
0.930733698042646
0.933298784826499
0.930733698042646
0.926404554170312
0.935062841914981
0.93020008189149
0.922075410297977
0.913498726870815
0.90120812003998
0.884506765019304
0.880792841615633
0.873142782447464
0.86470670706362
0.848479964468289
0.842056552681446
0.837279190531462
0.821026053788436
0.822505101234282
0.821641274257099
0.82139266774858
0.826585638598096
0.813846813489612
0.823238329154568
0.818175957361947
0.826834245106616
0.835953342734209
0.844150820595955
0.828738910238416
0.835397125991357
0.843440193267363
0.842824972798701
0.852809108340624
0.83982167672362
0.848479964468289
0.844422027696169
0.848479964468289
0.848479964468289
0.836144156454074
0.854260550701584
0.848479964468289
0.836672768112028
0.84038669151569
0.846340495370423
0.840487102868893
0.831163388978951
0.831163388978951
0.832072417139475
0.831163388978951
0.835198725159433
0.835478730308802
0.856495426659328
0.885555190285861
0.902885568317684
0.894856303584161
0.924526283186084
0.936922305863453
0.924247488974053
0.915891806970443
0.904758834808639
0.888053686231972
0.840424305587079
0.822505101234282
0.8178595490784
0.813846813489612
0.805188525744943
0.804582103325492
0.801773414526392
0.803302667648838
0.802388634995054
0.796530238000274
0.803003855463717
0.770403386055006
0.730402835668047
0.771448178509812
0.958476572665321
1.31591740382917
1.74442968017782
1.96110133829919
1.97543842924241
1.65399784373758
1.12440239036406
0.986747576713263
0.940898638318067
0.904058216466469
0.878698573701124
0.859037912851548
0.8555462018087
0.83982167672362
0.844150820595955
0.834823313150022
0.835854142318218
0.844096821363353
0.83982167672362
0.83982167672362
0.855400589272147
0.849656406173031
0.86431248801855
0.866542359483136
0.868026411422214
0.876377088932547
0.872840176706382
0.878783971574631
0.881114254392386
0.892463223484594
0.900813900994932
0.891771403191635
0.904296813988561
0.908549358036599
0.913417122553308
0.928426015816554
0.935062841914981
0.937622924205598
0.952379417404319
0.94372112965965
0.942083878072041
0.936392483268255
0.932777760280522
0.939391985787316
0.931140508692912
0.922174610713908
0.930942107861049
0.918778306531111
0.908264348393908
0.885375596489759
0.868674241469084
0.859720935095233
0.857138252212958
0.855170789799347
0.837152385030566
0.83982167672362
0.8235497329449
0.834018489898712
0.826834245106616
0.835492532851285
0.835306723624577
0.835985952312324
0.842548761205214
0.843042180666253
0.845567070759988
0.851927685265018
0.850511435100985
0.852809108340624
0.855455799441982
0.855558793413912
0.835432318188202
0.852049486272642
0.844602832429604
0.873877221305022
0.852645899705611
0.852809108340624
0.846486107906982
0.853895147678631
0.851415458768285
0.848479964468289
0.83982167672362
0.844150820595955
0.850185017830959
0.83982167672362
0.831163388978951
0.843368597936279
0.83691637012732
0.870793692594016
0.891912011234955
0.900429690936304
0.898918033912321
0.941594252166996
0.94783427660164
0.924725894955313
0.921718805324312
0.900429690936304
0.87099951979364
0.836981589283635
0.822505101234282
0.809517669617278
0.800859381872609
0.801048984655258
0.800977389324293
0.788297567941621
0.795797010079926
0.806229363899622
0.796530238000274
0.800859381872609
0.760289862393645
0.724779242639242
0.804638845920579
1.02307867617468
1.43161920937213
1.81374634855566
1.97180748183767
1.92800728868546
1.48597316084857
1.07098241449984
0.960261697919919
0.918508310368229
0.891419802711246
0.858771710244606
0.846091888861933
0.83982167672362
0.829390533841257
0.832628633882313
0.835492532851285
0.836342557285984
0.835492532851285
0.843681212663881
0.835492532851285
0.83982167672362
0.860091342611377
0.850471238410868
0.854112355546245
0.865796539957628
0.870125683829962
0.870125683829962
0.881317659717577
0.887442259319301
0.888622494580026
0.892644028218029
0.904193820016577
0.904758834808639
0.904708629132037
0.930018066220773
0.926404554170312
0.930733698042646
0.94067263240126
0.94372112965965
0.938854576080213
0.937266319231932
0.933244785593933
0.936371093613893
0.933860006062561
0.936706308933194
0.917746266425643
0.912857112254455
0.904731229723733
0.887442259319301
0.878141146021054
0.863368267661119
0.854067154362873
0.848479964468289
0.8379484102327
0.83982167672362
0.833004045891693
0.835492532851285
0.826834245106616
0.810435495827013
0.826834245106616
0.835795138592349
0.835502541837829
0.841962517502726
0.84106212664749
0.845078655792222
0.85590280678236
0.848479964468289
0.857138252212958
0.852809108340624
0.863330653589704
0.858356101545134
0.857138252212958
0.863348249688127
0.865163723390541
0.852809108340624
0.852809108340624
0.844440834731863
0.860869771715053
0.854619577549768
0.846576510273761
0.851520874614759
0.85165405629026
0.852809108340624
0.852809108340624
0.845729068457729
0.860950165095288
0.881673053753965
0.90672508628498
0.913417122553308
0.930814091422881
0.968626338716802
0.956708561276654
0.939391985787316
0.923265654545185
0.910750252734799
0.884200365722244
0.848376970496361
0.831163388978951
0.828435093560086
0.81514005170875
0.81187555752
0.816141904110521
0.805188525744943
0.813846813489612
0.813846813489612
0.817623534175088
0.813846813489612
0.750760160559698
0.735825605990327
0.846948450215333
1.0623863560758
1.51348889363162
1.86582925669891
1.97592579401693
1.90295130185464
1.38477060469093
1.06140008511498
0.969354401399869
0.922964259741522
0.887972081914518
0.867471405616724
0.861467396085293
0.847056127192377
0.847671347661041
0.835492532851285
0.837446192722415
0.844150820595955
0.846827699400885
0.847449135300139
0.844150820595955
0.852809108340624
0.848587962933432
0.874255215933106
0.865289317954105
0.867426204433336
0.870125683829962
0.874454827702297
0.883113115446966
0.883113115446966
0.89610054706397
0.900429690936304
0.906119874802799
0.91119483820063
0.934317022389483
0.93029548875148
0.930864297099483
0.939391985787316
0.943236508247822
0.94372112965965
0.945850589771005
0.955301109161832
0.94020802896244
0.930733698042646
0.944052551422948
0.94466777189161
0.93800834520146
0.91992334959493
0.912648702436115
0.888363879085023
0.878630771926102
0.869971273244159
0.87151174629038
0.845690082704906
0.849557205757099
0.844150820595955
0.847535744110921
0.835492532851285
0.837513994497466
0.838107825311776
0.835382112511478
0.857138252212958
0.849270985177177
0.852809108340624
0.857138252212958
0.852940918334733
0.857138252212958
0.860720365622513
0.864741899260511
0.858742894222391
0.854478969506411
0.861467396085293
0.866278578750796
0.857138252212958
0.858567093982163
0.858103701480689
0.848479964468289
0.857644263279156
0.848876766132011
0.852918317743098
0.848479964468289
0.847755534597153
0.85610621210749
0.838482026383822
0.83982167672362
0.837866805915158
0.835492532851285
0.833733480256075
0.825382802745738
0.822505101234282
0.824177545018712
0.848479964468289
0.849363970162501
0.878697362763852
0.89610054706397
0.880187630133513
0.927705379501327
0.939391985787316
0.923155234205442
0.908623375242173
0.89610054706397
0.871657358827014
0.829689346026377
0.826834245106616
0.811270346037882
0.792201094127939
0.796043033969778
0.787807942036521
0.788243568709021
0.792201094127939
0.797517076922352
0.793495543284349
0.794928178609534
0.766606486652432
0.729164968362904
0.79401067388806
0.98081564474542
1.34389419296867
1.75021317051795
1.95037775940637
1.96140604442648
1.6122726292317
1.09461028826638
0.974949017662154
0.911980693672163
0.884384964011699
0.855968025938762
0.833050458012355
0.813907028152758
0.814522248621431
0.816656713226023
0.815752689558773
0.814750837156863
0.815039640355443
0.826834245106616
0.831163388978951
0.83386044650085
0.831163388978951
0.834550895112536
0.82991414100587
0.844150820595955
0.850344432910033
0.854981187016699
0.848479964468289
0.862712850502435
0.851574873847359
0.86054077182636
0.862705424134515
0.874143423912027
0.89610054706397
0.891771403191635
0.891771403191635
0.900429690936304
0.907861331299587
0.914951380169026
0.915258990403358
0.909087978680974
0.917746266425643
0.910652424000264
0.903501999723679
0.914366347403936
0.904758834808639
0.895766542682005
0.887468653466935
0.88367554762036
0.862056222406322
0.844150820595955
0.842229770303002
0.852809108340624
0.828653512364971
0.818175957361947
0.820610445088964
0.813846813489612
0.806467961421598
0.81914778280427
0.817511742153956
0.817819352388287
0.822505101234282
0.822246485739275
0.8279666965653
0.817302121398269
0.844935625874245
0.831163388978951
0.832960055645636
0.826713655036325
0.834997902452907
0.832773035481593
0.841546748059344
0.835492532851285
0.83617934865092
0.835492532851285
0.835564128182248
0.831635418785573
0.830619763841303
0.838119205979654
0.827993090712935
0.821038645393627
0.831163388978951
0.820423424924955
0.816236100033273
0.807885422522941
0.806868395897276
0.812829786863946
0.841313155030634
0.813846813489612
0.813846813489612
0.809731083928952
0.830121339886938
0.864139270396953
0.880840625417628
0.878783971574631
0.902082116747648
0.928674622324983
0.920517180409294
0.900429690936304
0.899082453484627
0.872375573267606
0.830431371995936
0.822080694485599
0.822154711691228
0.792391907847919
0.788370374209916
0.796530238000274
0.787871950255605
0.793687728685662
0.797401652089334
0.805188525744943
0.792560120976205
0.775858765955527
0.719975486341624
0.749811417941287
0.914012807281088
1.21612689706176
1.65760384369182
1.94572752424525
1.99860476442144
1.77755747529161
1.18537742575414
1.00532825291144
0.936642139969964
0.89348388292212
0.870439509494838
0.84755091833475
0.835492532851285
0.838736848322885
0.830386170812548
0.839352068791547
0.835330535153544
0.835346920314693
0.843697597825026
0.83982167672362
0.843082377356355
0.85123207141616
0.855454588504687
0.855146978270351
0.863229031299134
0.86663534446846
0.870125683829962
0.864689110965243
0.87092550258801
0.878783971574631
0.883482312025721
0.883236127391923
0.89956844657773
0.90402060239502
0.918937882354124
0.923697648405749
0.930733698042646
0.932702371393592
0.926181130872096
0.928988447989919
0.932171337861042
0.935062841914981
0.927226973520045
0.942691511428848
0.922075410297977
0.926404554170312
0.913825144140901
0.901860954580154
0.900429690936304
0.894769694773381
0.870711927532385
0.859521323326042
0.863542856964044
0.844944263179447
0.836901195903441
0.83577390968198
0.835492532851285
0.826296835399521
0.826834245106616
0.835492532851285
0.83982167672362
0.83982167672362
0.836493174315846
0.83982167672362
0.833876670918062
0.855214780045403
0.854907169811071
0.850270415704407
0.846997123466504
0.862642626852746
0.854535390613594
0.848479964468289
0.84822756440383
0.852643477831003
0.853534749149044
0.840492107362164
0.848479964468289
0.848479964468289
0.848479964468289
0.837393404427173
0.84194233878573
0.849183004685076
0.85262192743264
0.841755157877749
0.83982167672362
0.823670323015146
0.839546676067524
0.831163388978951
0.826494025294046
0.818823787408797
0.828745125668989
0.834229482335765
0.83982167672362
0.866369141861575
0.893914665845442
0.889277911738771
0.912144063051245
0.925184122219513
0.906349513531585
0.898614056489925
0.892366605687219
0.883143142406598
0.832751485083331
0.819426416272363
0.814779653179151
0.797770687924144
0.789420010413807
0.794056764520474
0.792201094127939
0.787871950255605
0.789422593032411
0.789114982798081
0.782607384075126
0.765532878175769
0.710587764232546
0.753364715328429
0.926013399975735
1.230600963236
1.66535584663821
1.9426688572562
1.97735552523548
1.7393479441024
1.15955713385045
0.99173060531916
0.927196625072469
0.873721439037942
0.860509373185453
0.836142945516794
0.82649144267544
0.809517669617278
0.801131799910095
0.813266785217786
0.817288318855797
0.815785459880987
0.8123439545148
0.818175957361947
0.816057877918471
0.831685624462228
0.838684220771678
0.828122478832481
0.835492532851285
0.839148663466418
0.83945627370075
0.835550325639826
0.856638617321368
0.847922536788158
0.850210040297221
0.86029474793649
0.867165167063684
0.874454827702297
0.872359348850487
0.897549567550201
0.887442259319301
0.900429690936304
0.910091202764155
0.901820918633998
0.904758834808639
0.900590477696652
0.900884124644619
0.900429690936304
0.896942984386791
0.901579738493456
0.900429690936304
0.882314507626262
0.874454827702297
0.861467396085293
0.843556829037714
0.832825663032899
0.826834245106616
0.826834245106616
0.809107065411079
0.805188525744943
0.801063998135072
0.791176641134349
0.804368689013816
0.808390222651821
0.800859381872609
0.792201094127939
0.805417114280375
0.813846813489612
0.802523027607828
0.808161634116389
0.81712753209539
0.817435142329722
0.809950874415173
0.818175957361947
0.826652229435847
0.818175957361947
0.821707865094851
0.828953696231425
0.815259270097705
0.818175957361947
0.818449747080767
0.805188525744943
0.812160567162697
0.811089541304446
0.807375617900775
0.800859381872609
0.801315187262198
0.8053367209002
0.796849068158428
0.800392356559197
0.812297542394117
0.800859381872609
0.824054533073779
0.853743319711448
0.85745724311511
0.86550031039111
0.898606790865924
0.909087978680974
0.890677776741734
0.872882795271167
0.869647277848734
0.839138493736043
0.809654484104718
0.78010251195437
0.778461627554833
0.778154017320548
0.771922630190991
0.770555374766266
0.757203751063718
0.748909655404594
0.766226230893932
0.770555374766266
0.762877549769144
0.735399666816367
0.684974510465421
0.738436376189243
0.911818128012863
1.2614577150166
1.68955543285939
1.91466736713871
1.92555125056023
1.62045170727723
1.08836857066323
0.949079409530956
0.892592450860097
0.851362670473018
0.822505101234282
0.81301559609067
0.796530238000274
0.839173685932774
0.775067745246705
0.791801870589557
0.792201094127939
0.787871950255605
0.792201094127939
0.803558861269235
0.798922107162569
0.805188525744943
0.806965174438576
0.809517669617278
0.806349953969913
0.814700631480251
0.826834245106616
0.822743698756256
0.839614638586549
0.843397574702568
0.84119014308566
0.850825421509896
0.857138252212958
0.875569843806603
0.861467396085293
0.876561687221953
0.889241508604627
0.890279764140639
0.898061633302979
0.891771403191635
0.89610054706397
0.891510205077963
0.896054134943307
0.883467137801963
0.891109770602302
0.883113115446966
0.878783971574631
0.861467396085293
0.844150820595955
0.833222625440586
0.829341539101964
0.809517669617278
0.802775266928315
0.799960362698629
0.78354280638327
0.78354280638327
0.783518994854243
0.779213662510936
0.770555374766266
0.781649521919228
0.78912620272196
0.780775525211621
0.787871950255605
0.78571988955262
0.790356643659284
0.792201094127939
0.797759468000265
0.805188525744943
0.800859381872609
0.792813892721934
0.800858170935276
0.805497346916606
0.796530238000274
0.800859381872609
0.810749321491935
0.803649263635952
0.815693685832934
0.805188525744943
0.810112711368914
0.799649119652313
0.807014008433903
0.79408953484265
0.796530238000274
0.80485952585625
0.805167136090582
0.797102679160212
0.792201094127939
0.796530238000274
0.800859381872609
0.810813490455022
0.832524589717112
0.857203632113375
0.859577744433248
0.873289766665389
0.914691553736689
0.898496049038202
0.886783048604583
0.866499740918402
0.865708559465513
0.819230437315069
0.797101468222889
0.788750790712554
0.774884518638601
0.769061313840644
0.763698758181554
0.759787805627302
0.770555374766266
0.761897087021597
0.766226230893932
0.770555374766266
0.757567943149263
0.707702154121419
0.688834367893435
0.806625436857571
1.04366038882799
1.4981871571409
1.84422695962104
1.95657032152706
1.86043175531625
1.32303369681639
1.01289033158773
0.937212159255397
0.88649287372472
0.8464559202035
0.823209513132338
0.809517669617278
0.805099334315556
0.800859381872609
0.805188525744943
0.801693021146217
0.795388988492332
0.800859381872609
0.813846813489612
0.80971865306774
0.822505101234282
0.819825800554685
0.819518190320351
0.82786886783069
0.835492532851285
0.835911935106695
0.831163388978951
0.839430040297116
0.843647392148371
0.866607578639542
0.863559242125135
0.870125683829962
0.874454827702297
0.881071635827726
0.887442259319301
0.89610054706397
0.89883021416417
0.917746266425643
0.916996653344206
0.922075410297977
0.900429690936304
0.913070687310187
0.901391346648094
0.912628684463075
0.907991930356422
0.910491637239875
0.900429690936304
0.878492585757389
0.872452173091838
0.854504152716748
0.8457050961847
0.83982167672362
0.822505101234282
0.822040497795481
0.822348108029811
0.809668286647142
0.801775836401009
0.80365685074787
0.80193282960548
0.810898727584485
0.814798620958859
0.822841688234859
0.829138133776831
0.832881033946734
0.835492532851285
0.840924101222731
0.83982167672362
0.831650593009393
0.835492532851285
0.852553075464165
0.848479964468289
0.832649862792737
0.844150820595955
0.835238761105611
0.84081868537618
0.841795354567837
0.841869532517407
0.844150820595955
0.844150820595955
0.83982167672362
0.837369432154243
0.835492532851285
0.835694727239082
0.831268804825486
0.831163388978951
0.835492532851285
0.83219163552848
0.863446399910666
0.887442259319301
0.89610054706397
0.891583172090259
0.93858853421728
0.940810657826016
0.920927784615492
0.891771403191635
0.899364880508658
0.87310605782535
0.826999875616294
0.809908095106451
0.813846813489612
0.799853735914776
0.792201094127939
0.794909371573777
0.796058047449594
0.787871950255605
0.798315684743117
0.790827623272631
0.792201094127939
0.759325302575138
0.720825671520328
0.795169840982162
0.994466562864752
1.37923909648324
1.78197943269098
1.95339469727976
1.93280919106991
1.5354047056007
1.08867876351607
0.961233362618305
0.916651268294472
0.881612678346799
0.861025232494304
0.842380387332962
0.830585782581791
0.831433385141774
0.813922041632633
0.831163388978951
0.831163388978951
0.822505101234282
0.821237046225487
0.841397341966788
0.850363239945753
0.844098193044685
0.840489524743558
0.854332146032487
0.852809108340624
0.854624742787006
0.865796539957628
0.861759992839811
0.861467396085293
0.874777451416443
0.891141169243155
0.892709247374445
0.903513380391497
0.89887662628483
0.920214735412173
0.919907125177841
0.921452763461375
0.927950192453848
0.938153957738111
0.934132424100109
0.934440034334441
0.913101925207098
0.922090584521733
0.926704577292766
0.922075410297977
0.922075410297977
0.917746266425643
0.893301867251413
0.891771403191635
0.870125683829962
0.862044841738503
0.846911725593061
0.836039790800925
0.831163388978951
0.829227164462248
0.822167303296377
0.818175957361947
0.826834245106616
0.814431846254711
0.81906860036138
0.816975704128176
0.818175957361947
0.827532441574071
0.816052873425199
0.83982167672362
0.828425084573541
0.831163388978951
0.832139007977213
0.841157694251481
0.835132134321687
0.835492532851285
0.835237710912218
0.834367668504482
0.836362575259026
0.840999329365695
0.828319507983025
0.838028803612873
0.83103521179678
0.826834245106616
0.824118541292862
0.829857559154705
0.821506881644371
0.809517669617278
0.830780389857713
0.822655879008089
0.852576886993193
0.865256708375866
0.869278242013871
0.889461299090785
0.923479229600801
0.930733698042646
0.900256312570809
0.885498608434715
0.895521568985545
0.851824530549274
0.812825993308021
0.803762105850425
0.791795494415013
0.78373878534046
0.775513380905806
0.770555374766266
0.777563980062137
0.76849113381139
0.760448066535385
0.778299790601091
0.774884518638601
0.723728074010146
0.694936206159698
0.775131346248286
0.972048951317499
1.39299478747285
1.77610707240955
1.9442357244501
1.89856404370579
1.47743563463321
1.05099590434159
0.939612504978927
0.891694642623396
0.858863323548657
0.830635827514398
0.801210821608993
0.803507283911302
0.799485750273297
0.797661317777671
0.792959505258587
0.800859381872609
0.792344284789925
0.796530238000274
0.804244466131576
0.812287533407572
0.812759563214256
0.81245195297992
0.81647348661792
0.818175957361947
0.835492532851285
0.831163388978951
0.829767156787987
0.83982167672362
0.837835568018164
0.848953365956248
0.865796539957628
0.857280071193671
0.878783971574631
0.870882723279338
0.895035897380263
0.886069999401264
0.898749820783972
0.900783874035238
0.900429690936304
0.897826990080964
0.904758834808639
0.893878101967322
0.895296934749982
0.891275401111982
0.878783971574631
0.878903189963649
0.874454827702297
0.857872691070639
0.836534581943298
0.823854760560626
0.825176975545942
0.811083165129962
0.805188525744943
0.800859381872609
0.789313383629939
0.792201094127939
0.791374881222267
0.786834744912929
0.796530238000274
0.792297711925262
0.804380069681631
0.795818399734288
0.809517669617278
0.818175957361947
0.806248331679317
0.813846813489612
0.813846813489612
0.812075169289252
0.810981703583308
0.816159660953005
0.820807474239549
0.814388016752648
0.818175957361947
0.813920830695241
0.809517669617278
0.813846813489612
0.818175957361947
0.821200643091309
0.807905601239969
0.807108204356559
0.800859381872609
0.806982770536998
0.796530238000274
0.809517669617278
0.801730795961669
0.828525656670801
0.85332149558142
0.861467396085293
0.857138252212958
0.906421430350552
0.916339864504128
0.890005974421857
0.881962907145856
0.881216037427019
0.844311285868427
0.807700824233563
0.79371032927732
0.782341181468228
0.762791101702305
0.769968970319895
0.766505025105967
0.766226230893932
0.770555374766266
0.766226230893932
0.763800380472184
0.767485487853557
0.742189692563419
0.699994784396379
0.761721929757076
0.93905805641935
1.31236377423745
1.73127047763406
1.93509507642427
1.91912872822292
1.58084514017719
1.07807376003659
0.958905340931214
0.889928002916369
0.855596246741427
0.829307557842479
0.819720223964208
0.800859381872609
0.803018868943534
0.800254331134432
0.802413818205354
0.803941699646528
0.806127741609028
0.804556920115192
0.801507372663451
0.813879583811794
0.818758407508433
0.822505101234282
0.818175957361947
0.825620189330379
0.827070099265983
0.835492532851285
0.837629419330517
0.837377180010059
0.846129824421385
0.848479964468289
0.858100068668736
0.866450746179075
0.878437375587516
0.887520230824867
0.89636917154552
0.885418054310514
0.895216702113746
0.903567379624083
0.916247201006747
0.902236366589533
0.898315405048739
0.894193299313537
0.903159197292542
0.891771403191635
0.89610054706397
0.886088645693118
0.882374722289456
0.865734953613209
0.848725988358203
0.835492532851285
0.825973000748042
0.826834245106616
0.813846813489612
0.79398516918951
0.796530238000274
0.796530238000274
0.793285761784684
0.788257210507631
0.797537255639396
0.797929052809846
0.796922035170724
0.805188525744943
0.805411949043159
0.81004870314983
0.814685457256493
0.822505101234282
0.821051236998737
0.820743626764405
0.831163388978951
0.824457550168076
0.822505101234282
0.825497016641482
0.826834245106616
0.823949117227222
0.817347161837671
0.813740025961806
0.822304278527756
0.818684390302801
0.815478899839985
0.817052303952429
0.806619789388793
0.81210793961143
0.824787760994102
0.841796726249112
0.866469713958762
0.865796539957628
0.86790097760262
0.904152733877125
0.922075410297977
0.904500058569631
0.883469559676635
0.891285570842468
0.851653734802302
0.817149971943131
0.803676707976961
0.791304496828573
0.781237546031785
0.770555374766266
0.761897087021597
0.76171523209483
0.770555374766266
0.76699344007379
0.774424919693075
0.774580541216205
0.757879186195535
0.694483712094134
0.717063964314634
0.876673072025602
1.18959072686168
1.64354651142381
1.92108609592022
1.9578953656045
1.72463157258009
1.16682492260337
0.977135788330415
0.911047693238802
0.869643484292792
0.852110751129291
0.826834245106616
0.813846813489612
0.813098572089451
0.800859381872609
0.800859381872609
0.802530453975766
0.805188525744943
0.800859381872609
0.809517669617278
0.808090038785429
0.823625121831803
0.833867712124908
0.826834245106616
0.818570337150997
0.839711256383813
0.839403646149481
0.836218173659756
0.845184071638754
0.857138252212958
0.858786723724422
0.867752621703423
0.872191135722169
0.883113115446966
0.887442259319301
0.89634188794848
0.909087978680974
0.913417122553308
0.909747350139631
0.922075410297977
0.913021692570867
0.913417122553308
0.900429690936304
0.916428005740206
0.910713849600743
0.902363172090406
0.887595298223825
0.889990960942066
0.885969427304059
0.861467396085293
0.856280640666381
0.822505101234282
0.826591854028703
0.818306395674786
0.813846813489612
0.805188525744943
0.804200475885518
0.819471617455708
0.802462652200706
0.805188525744943
0.809409831896071
0.813123755299741
0.824000533841177
0.815034635862171
0.818175957361947
0.821932499330396
0.83169337231805
0.839864295288402
0.83982167672362
0.823820779301174
