0.928051325347327
0.935246192812594
0.950217058836629
0.948764231102879
0.946038494010495
0.96042822894103
0.964136309845311
0.973254488966175
0.988156083786743
0.987574952693241
0.992805132534733
1.00399864645102
1.01450038210217
1.0107923011979
1.01845765258503
1.02082355292719
1.01649296496125
1.01798716866317
1.01046035968298
1.00886898954229
0.995019009737093
0.988114707818576
0.986800422491783
0.966087516736235
0.949635927743129
0.946107765213976
0.935246192812594
0.92150686017903
0.92085645788206
0.930417225689489
0.917259024149426
0.915474254900767
0.923235838957061
0.914865228571951
0.919943385273653
0.921478964943716
0.924785833129599
0.920815081913906
0.927552946190159
0.933268024455966
0.934415872140508
0.931648759079961
0.938843626545228
0.939037025653184
0.934029073924597
0.936560478139387
0.942441060277862
0.953233361475763
0.946038494010495
0.938995649685029
0.946038494010495
0.946038494010495
0.935246192812594
0.937833387498026
0.936546997406548
0.935246192812594
0.942441060277862
0.934498624076816
0.929380025176607
0.937999825140293
0.93054228736359
0.928313995658763
0.924453891614694
0.924453891614694
0.921465484210876
0.925353483490261
0.923263734192376
0.931648759079961
0.938843626545228
0.956830795208396
0.970113124652937
0.972174978715501
0.997730332327007
1.00756818494834
0.985362009260504
0.964233476284094
0.973821205557202
0.956389140291491
0.938484723564644
0.909206874546393
0.911724798028344
0.895979401802849
0.887593443145633
0.889544650036562
0.888479554288357
0.894706492444215
0.892076988020991
0.891979821582196
0.896062153739171
0.871848980689784
0.828292043912633
0.837934629886723
0.98084496653201
1.28252355075896
1.69885886820468
1.95926885872023
1.99300515868744
1.80540912093117
1.29600126470455
1.04306135892889
0.979800821673754
0.963458012313001
0.917952669953843
0.913510501046639
0.904308636219802
0.895536813116311
0.901292333580668
0.893101641570677
0.901873464674168
0.895674421753624
0.902039902316443
0.90981590087521
0.895674421753624
0.910064156684159
0.909316587948384
0.908542991516576
0.906078057196333
0.910064156684159
0.918946626959285
0.918656061412535
0.924453891614694
0.923304176390887
0.930598077834243
0.928051325347327
0.942385269807221
0.945692137993104
0.948362084614847
0.954975820986615
0.967623096406297
0.972729148343322
0.980214581355339
0.990715383236842
0.998782881112007
0.99732911960861
1
1
1.00719486746527
0.996402566267366
0.996402566267366
0.989207698802099
0.991697727048726
0.974016472204443
0.967402735832675
0.949635927743129
0.944710727950868
0.93780642603235
0.930155489147705
0.917715093568804
0.909733148938903
0.917008900801183
0.89968748270713
0.897086807288868
0.909067398369787
0.904156613080013
0.91050581160105
0.90992468050755
0.911502569915421
0.912359852053184
0.911778720959684
0.92085645788206
0.924177740570431
0.917259024149426
0.921161437931297
0.92504943721068
0.926226113900167
0.928051325347327
0.92658408311109
0.929809133130314
0.924953204541533
0.92679283049118
0.918226953458823
0.917259024149426
0.919696063234368
0.917066558811132
0.920467792126855
0.917259024149426
0.910064156684159
0.901803259701039
0.906466722951525
0.906466722951525
0.90093156306079
0.902869289218892
0.897831574715688
0.898483844551976
0.901376953056296
0.895881301594406
0.888646925700293
0.895674421753624
0.886211754154659
0.892076988020991
0.893182525967689
0.903393696072091
0.904582919724756
0.92593368081411
0.937624640117927
0.941539600862978
0.976034148989898
0.981377777311999
0.924453891614694
0.931121550917794
0.934692023184761
0.909000928475274
0.884690588987089
0.887733853091889
0.875806251172655
0.872499382986772
0.868194822716857
0.863297518159922
0.856821390425458
0.870492385625189
0.870217168350586
0.855796736875757
0.862853995703723
0.822403583659272
0.801116491155451
0.833473377628717
1.00585029355181
1.37323940903949
1.77823665958644
1.94588749529757
1.94475645546685
1.65585820430314
1.11734763073081
1.00033847790251
0.95716367049296
0.926324214108635
0.901099868242387
0.888479554288357
0.882779824294654
0.875875522376136
0.875610984525398
0.872859219736998
0.874089819357823
0.874089819357823
0.884882120555724
0.870492385625189
0.880840230597231
0.880771893163411
0.89288034722742
0.890983063267812
0.889864044588287
0.888479554288357
0.890111366627568
0.890735741228531
0.897170492994841
0.902109173519934
0.897083072210244
0.910064156684159
0.910064156684159
0.916856877661382
0.923068467545104
0.93622947039413
0.935246192812594
0.942441060277862
0.963913147962721
0.972672424103025
0.963912214193061
0.96849385927689
0.982012831336832
0.974528332094474
0.967623096406297
0.971803528771751
0.982594896199992
0.97034789972903
0.959265032984379
0.952543450749934
0.933393086130114
0.924926243075868
0.917259024149426
0.911045566726387
0.899271855486258
0.898871576537532
0.884772407153749
0.88811784999883
0.882698939897633
0.891315004782725
0.88128468682309
0.877687253090456
0.892076988020991
0.886555308863088
0.888479554288357
0.892076988020991
0.899271855486258
0.899271855486258
0.889140636009223
0.90999395171103
0.902869289218892
0.905164050818264
0.903811190832273
0.910064156684159
0.899271855486258
0.90822079565589
0.907959992883773
0.905264018566028
0.899271855486258
0.898650282194252
0.898609839995746
0.899231413287752
0.888479554288357
0.892617676915986
0.889310808730104
0.889833348043996
0.894901759091488
0.890182505370357
0.886486037659607
0.884882120555724
0.882307472833481
0.88128468682309
0.88128468682309
0.884882120555724
0.870631861801798
0.877687253090456
0.885597125207911
0.903433204500938
0.913661590416793
0.917671850061332
0.938338711000479
0.961852227669805
0.954563928844346
0.91917072261151
0.917259024149426
0.916997287607651
0.895789737773523
0.881923475926541
0.87707729299198
0.851604691316793
0.85848483307861
0.851657680478483
0.847135560943913
0.848907783229387
0.848907783229387
0.845310349496754
0.848907783229387
0.845310349496754
0.819637404368358
0.769972988491538
0.814635871173063
0.977007563062936
1.3111233923481
1.70799134397357
1.88717884035162
1.91589610120876
1.65983321640933
1.12636222487955
0.985842764648581
0.927085263577238
0.912891729063616
0.888479554288357
0.863686183915128
0.862618286857966
0.852505216962021
0.858439722031833
0.848907783229387
0.852590770207297
0.864762892856851
0.863224511877826
0.859700084427288
0.863891196216601
0.862994405649992
0.866882404929376
0.863019499576351
0.874089819357823
0.874948969034893
0.875387822642816
0.876246972319886
0.881420427921084
0.888479554288357
0.887194097966544
0.888479554288357
0.896378746981938
0.896088181435188
0.906713111221154
0.924286520202758
0.917716961108113
0.933749187801724
0.937804558493043
0.943379226812624
0.948015728597443
0.951546692435565
0.951032031236577
0.953233361475763
0.951265872543026
0.956306388355198
0.94267490158431
0.949579203502827
0.946038494010495
0.931648759079961
0.918187445029978
0.918478010576727
0.913083260632261
0.893877105541792
0.893583738686074
0.888479554288357
0.878507828108342
0.872819711308157
0.866894951892555
0.866948874823888
0.863770803390755
0.869437969300856
0.870492385625189
0.875198158613489
0.88128468682309
0.88341114324086
0.888479554288357
0.878070316227725
0.884882120555724
0.904229619362122
0.892987259320427
0.90303385932186
0.895926412641188
0.906050161960993
0.893553042141778
0.901267239654321
0.904157546849674
0.897693032308726
0.903010632934821
0.895674421753624
0.900575461389187
0.895674421753624
0.896240204574977
0.891526553471787
0.884882120555724
0.891771074202093
0.882477645554385
0.890253644113152
0.887237341474018
0.892076988020991
0.884882120555724
0.888479554288357
0.894416860667137
0.909367709570735
0.92737489535434
0.9180307530419
0.94622909180947
0.974427430577039
0.971706362332944
0.938843626545228
0.937776663257715
0.936603721646857
0.908114817332538
0.883503232873744
0.874950836574214
0.864739666469812
0.863297518159922
0.869995874007315
0.859700084427288
0.856102650694654
0.860825639494423
0.860365834996416
0.860656400543166
0.85845320276466
0.840145297822485
0.785923397018487
0.816090566446077
0.967427711904611
1.25355044608079
1.65795080930452
1.87121214978286
1.90261750684296
1.7219736833612
1.19212691478083
1.01586631486336
0.952097126984769
0.925136857995289
0.90802138597237
0.890487485419594
0.884882120555724
0.882293058330984
0.874089819357823
0.878114493504849
0.881148011955448
0.888171772930138
0.88128468682309
0.884147098783114
0.895674421753624
0.889795707154465
0.886872835875499
0.904569438991923
0.903647554498965
0.903988307898421
0.909235703551381
0.912585815244739
0.913414268377517
0.910064156684159
0.921190266936284
0.931024384478986
0.932563699227675
0.946038494010495
0.940339697786444
0.949635927743129
0.958907997543115
0.968852762257461
0.989207698802099
0.98690733458479
0.992805132534733
0.982080235000992
0.996402566267366
0.996916293696706
0.993609425510822
0.995307707744536
0.985610265069465
0.983934275453133
0.978751074197732
0.969880217116132
0.954283108951811
0.953233361475763
0.940566594747678
0.928407427018917
0.924566406325636
0.914064670674486
0.910064156684159
0.917259024149426
0.912386813518846
0.902869289218892
0.915403116157978
0.905771209607759
0.910064156684159
0.907336552052457
0.912381210900887
0.921145155889491
0.920858325421368
0.928343758433386
0.934663194179785
0.925327455794254
0.926887195621016
0.940986365004799
0.936991453632408
0.944476886644426
0.93757258472591
0.945058017737918
0.940371328100384
0.935246192812594
0.938843626545228
0.942441060277862
0.93789892362288
0.941132377569006
0.941387577723185
0.931648759079961
0.93720901289705
0.933321013617666
0.941059371286909
0.936337316256797
0.943241618175323
0.966065632076511
0.978415397604198
0.989065421316521
1.00251232086401
1.01733489882688
1.01096620899743
0.983246232266625
0.996402566267366
0.980293190255373
0.9553384590458
0.935238314697689
0.922631481476502
0.909443517161813
0.899601929461854
0.910024648255313
0.902367174983083
0.906466722951525
0.900104043697665
0.900394609244416
0.897858536181349
0.886586005407376
0.848087734023507
0.834518048298853
0.899188051925951
1.09815699616144
1.48485450998438
1.83446077104942
1.93850897437857
1.87560103942513
1.54836599556819
1.11220218821924
1.01042137706616
0.969216334086316
0.953403534196666
0.943192364092265
0.912529091004427
0.903940921354681
0.896777158391354
0.895674421753624
0.902869289218892
0.913020933774021
0.909453262816022
0.904663804121755
0.906466722951525
0.913661590416793
0.913661590416793
0.92085645788206
0.916015877565427
0.922761619956559
0.92218048886306
0.92122790782581
0.928132209744327
0.931858440229711
0.935246192812594
0.950860924746015
0.938843626545228
0.947745588128764
0.963753246708029
0.969267455708681
0.978415397604198
0.979478625813083
0.994350457859001
0.99688466338275
1
1.00359743373263
1.0039870332575
1.00359743373263
1
1.00126129616511
1.00155186171186
0.985610265069465
0.982681383214929
0.967623096406297
0.96042822894103
0.955052562347339
0.945131957789691
0.931648759079961
0.921414362588521
0.92085645788206
0.918979191042887
0.910064156684159
0.91150537122439
0.904734942864545
0.902422031684065
0.908779634132006
0.901875332213489
0.89708120467093
0.907705200687237
0.917136763784272
0.913493285235197
0.909605285955813
0.926552452797135
0.914701592238639
0.924848159987847
0.926785360333924
0.927825362155768
0.930253589356173
0.924453891614694
0.935246192812594
0.927527852263788
0.925152614225058
0.92816664136725
0.938843626545228
0.926370258925077
0.928051325347327
0.91969886454335
0.933159244823672
0.922657509172521
0.933740375917172
0.946038494010495
0.952409985148895
0.97312289090445
0.965056326798933
0.989366666287119
1.01031714842775
1.00105628386365
0.977274086307296
0.967623096406297
0.966825339817817
0.931432133584979
0.903233794817412
0.894348523233317
0.870492385625189
0.882774221676705
0.873635617477765
0.877687253090456
0.877814182303899
0.866894951892555
0.870492385625189
0.863297518159922
0.85868103349554
0.813199443335497
0.800127610955959
0.86901942291658
1.0718187084214
1.44432402945791
1.8150109111438
1.93670418800946
1.86009602089378
1.51661305861822
1.08268915616743
0.981921793328028
0.942441060277862
0.918728133924984
0.902791206130874
0.877687253090456
0.88128468682309
0.875055881127899
0.876336260643801
0.873704888681246
0.877687253090456
0.881088486406167
0.877200487126783
0.883327457534879
0.887017914670069
0.87904571569438
0.886830526137692
0.892358741683192
0.892076988020991
0.901792580277177
0.902083145823927
0.892572565869204
0.899271855486258
0.917087917658849
0.917635142941465
0.917925708488214
0.927094075461788
0.928051325347327
0.942441060277862
0.944209547484706
0.956189204795954
0.961615585054381
0.971220530138931
0.977809172584349
0.978099738131101
0.974817963871564
0.971486001759334
0.981456794169678
0.966565470815344
0.959291060680385
0.958258529015793
0.951354227097276
0.942861356347022
0.938843626545228
0.909056718945926
0.906466722951525
0.889758474222553
0.891941246923009
0.888324729839588
0.874980599348863
0.872617908273285
0.877687253090456
0.869175298989428
0.870492385625189
0.875789035361194
0.866114819073161
0.872971734447953
0.878802128733736
0.891003080388258
0.884389344016467
0.884793766001478
0.888144811464484
0.882535303564339
0.886647806453605
0.886066675360105
0.892680411731872
0.892054695403613
0.895674421753624
0.886110852637228
0.88941772082311
0.888479554288357
0.888479554288357
0.899138915697257
0.888479554288357
0.891562326822001
0.88208991356883
0.889575346580847
0.879898328983848
0.874089819357823
0.875719764157713
0.869153006372051
0.876187446770618
0.870492385625189
0.866427269279659
0.870669502691336
0.884655223594516
0.919644415799998
0.912967010842689
0.929335322087461
0.950681940140548
0.964025662673664
0.937219284363288
0.919406431457285
0.919696997004037
0.900262603225078
0.864581632754428
0.859124555951726
0.841715717073088
0.838408848887206
0.83033668216375
0.827323180833585
0.828590487574277
0.826637005186387
0.829069375423054
0.822165073504535
0.827323180833585
0.807056190885551
0.754685529224745
0.773349943796185
0.916034199395452
1.20243868723392
1.60219361893376
1.89585938973749
1.89786983207445
1.71848193784869
1.23352226545645
0.986629433855652
0.923909059683423
0.896001286462606
0.876887628962656
0.854575474951501
0.837896988997184
0.845166204471856
0.838115482031486
0.835171251904801
0.828266949986284
0.838115482031486
0.836590581785288
0.830920614566219
0.846801751889689
0.851309456921757
0.848907783229387
0.845930055249439
0.860029224633224
0.852466642302835
0.848907783229387
0.859157527992972
0.866894951892555
0.869368698097375
0.872675566283258
0.877687253090456
0.88128468682309
0.892414006341814
0.89411882496313
0.906466722951525
0.910064156684159
0.924603113445515
0.931648759079961
0.938411717282548
0.938843626545228
0.934233152456415
0.941137454374933
0.942441060277862
0.935246192812594
0.940265757734683
0.929182890990033
0.931648759079961
0.926950456248919
0.913401721414338
0.910033460139864
0.905824198769436
0.88250834209868
0.877687253090456
0.871703901895233
0.877687253090456
0.875863909182617
0.866894951892555
0.863168313449537
0.871444032892778
0.863958599880762
0.863668034334011
0.88136463745043
0.863929362918153
0.871995927023672
0.886896062262537
0.887397242728698
0.890704110914581
0.886275014782571
0.892076988020991
0.900624715472232
0.895674421753624
0.89490269286115
0.891595824675267
0.888670152087331
0.888579522036133
0.891686454726466
0.895674421753624
0.880313022435063
0.890814758086215
0.882837482304615
0.883128047851365
0.882748193980698
0.880111745212231
0.871374761689297
0.874681629875182
0.877386008119848
0.870492385625189
0.87077227174808
0.863297518159922
0.873228802141432
0.863297518159922
0.863297518159922
0.865162238035914
0.856102650694654
0.858416495644795
0.858088697166142
0.858295169049302
0.862885626017679
0.849271763015867
0.863128279208666
0.86911297213117
0.886228444154087
0.905900414318136
0.905135221813269
0.923185125292311
0.945810663279617
0.938258352415481
0.900375525893636
0.907279827812153
0.906466722951525
0.880356791754573
0.863297518159922
0.844961192170381
0.845310349496754
0.830920614566219
0.833297194332232
0.835092643004743
0.823725747100952
0.82431341458206
0.828491979408195
0.834518048298853
0.823092560615437
0.785353063203264
0.773413730236093
0.842448227639897
1.04539019858794
1.44075518902134
1.79299334786115
1.90174610030589
1.84684678134496
1.48152226683454
1.04487933592772
0.952153035309842
0.904235221980082
0.874089819357823
0.859537381863639
0.841840778747222
0.838533910561338
0.834518048298853
0.831920174189572
0.826305997441155
0.825742490116733
0.827323180833585
0.8366798701092
0.830920614566219
0.831775095395004
0.84171291576412
0.84171291576412
0.838132697842955
0.845002568138535
0.851308523152085
0.848018870777669
0.847728305230921
0.851035173416803
0.850668392321356
0.859195168882489
0.868150645439727
0.867860079892976
0.866894951892555
0.878455246904292
0.888666417008693
0.892076988020991
0.895674421753624
0.894896156473552
0.913661590416793
0.911423553057734
0.906466722951525
0.92085645788206
0.912295249697987
0.900347630658312
0.910064156684159
0.910064156684159
0.888479554288357
0.895501447723726
0.88166173938479
0.881952304931537
0.868811319202954
0.864546267361872
0.857123161208092
0.838115482031486
0.840235927873678
0.83934007107674
0.830920614566219
0.837510190781298
0.834832774002289
0.838139642188185
0.834784453688905
0.834518048298853
0.838115482031486
0.851367114931715
0.84171291576412
0.852505216962021
0.857690285756729
0.857105945396639
0.857109154663227
0.859700084427288
0.852505216962021
0.852505216962021
0.856102650694654
0.849354106994557
0.846047238808671
0.845310349496754
0.856102650694654
0.85212495513373
0.844908610966329
0.846874350214179
0.83563519943907
0.843366086951054
0.844238309403317
0.841958370264087
0.83820570412505
0.838115482031486
0.836862997750916
0.830003806879184
0.83572542153264
0.826721624662025
0.823725747100952
0.826762474818139
0.826095382521742
0.826385948068494
0.812933445903051
0.820128313368318
0.827257644708735
0.816755909057582
0.823725747100952
0.816530879635684
0.816530879635684
0.812933445903051
0.814853022480038
0.818159890665921
0.816530879635684
0.822677867164215
0.825051237663627
0.813400194746288
0.820304496664805
0.81675964413621
0.830920614566219
0.830920614566219
0.844324270606237
0.860744229285386
0.868925175641171
0.893698528893949
0.912962341994399
0.87293129224945
0.860568045988908
0.859122688412415
0.865460799551944
0.834521783377481
0.827617481458964
0.820128313368318
0.814684309340805
0.814099443168679
0.812933445903051
0.820128313368318
0.809336012170417
0.814202620183057
0.816530879635684
0.810869316343535
0.768174330552422
0.75199089663429
0.803902043900343
0.990515619990086
1.37928957462674
1.75046935070622
1.86654121637511
1.84967155241532
1.51108385490839
1.04903374059709
0.955311615434531
0.900473218144469
0.879760312388914
0.858829847368723
0.845164336932535
0.834881620127711
0.820782450743927
0.827323180833585
0.836880213562378
0.830920614566219
0.827323180833585
0.830304118080135
0.835717951375378
0.837206144501711
0.848907783229387
0.845310349496754
0.845347990386278
0.848907783229387
0.847277312617462
0.849741838980113
0.857227271992127
0.856869710738841
0.865189199501583
0.872093501420099
0.873113486121509
0.873069834656412
0.877687253090456
0.895674421753624
0.899716719669739
0.902869289218892
0.90963131365182
0.912938181837703
0.924453891614694
0.929355865019917
0.931648759079961
0.927877417547783
0.930227561660167
0.92671515536078
0.923376656860943
0.924453891614694
0.924194956381899
0.924453891614694
0.903835876801012
0.898738228790895
0.893883641929404
0.888463798058585
0.883397662508019
0.879414890141188
0.86742869644233
0.871607261268465
0.862346804661992
0.859700084427288
0.859330502022859
0.856102650694654
0.859700084427288
0.865388609185095
0.868480311457697
0.869061442551198
0.863297518159922
0.872425442935002
0.874089819357823
0.87273789314151
0.88128468682309
0.88411132543291
0.880804457247027
0.888289890259042
0.877889056125327
0.885273587619911
0.880602654212155
0.88128468682309
0.872826655653388
0.877687253090456
0.872245524559887
0.876224679702508
0.877687253090456
0.876805810796007
0.874089819357823
0.877386941889509
0.870492385625189
0.867175771785107
0.866894951892555
0.872216287597292
0.87293730282502
0.867606221466086
0.863297518159922
0.856102650694654
0.86201486314709
0.866894951892555
0.856102650694654
0.859700084427288
0.859820477253123
0.859870257148204
0.852965955229688
0.862546214345506
0.870492385625189
0.888479554288357
0.903220722042193
0.902869289218892
0.940236928729696
0.945224981192261
0.900896197668194
0.899271855486258
0.895212341758689
0.877806304189021
0.870842476721222
0.845951006139535
0.839850471385055
0.84171291576412
0.834518048298853
0.832723533395995
0.827323180833585
0.827323180833585
0.831843432828823
0.824990252532662
0.833492986791541
0.798185859616041
0.765927363454416
0.828687944116227
1.00239624332313
1.38777444940752
1.76596970038928
1.89089707486767
1.88108799685706
1.54556223884838
1.07546732723648
0.970360564546625
0.908254819321206
0.898948317898285
0.874347412863349
0.863297518159922
0.853215144808282
0.844309856103749
0.848907783229387
0.839697106517991
0.843585105797376
0.843147593916748
0.848907783229387
0.852505216962021
0.853631179986769
0.866894951892555
0.859718234008416
0.852505216962021
0.859700084427288
0.856102650694654
0.856102650694654
0.859700084427288
0.86146162728891
0.859193301343175
0.869404471447576
0.865225906621439
0.878360881774465
0.884882120555724
0.892076988020991
0.895476353797394
0.899271855486258
0.908505758584689
0.92085645788206
0.924453891614694
0.926400429657342
0.92610986411059
0.931648759079961
0.929499076275171
0.933677641101308
0.924947601923587
0.924453891614694
0.924366470830084
0.907222695614243
0.907135274829625
0.889438671713206
0.886131803527324
0.872032634143542
0.863361712557493
0.853335945591725
0.851319728387992
0.85431280464008
0.848303425748851
0.841399123830331
0.838115482031486
0.830920614566219
0.835633857711779
0.843613408990324
0.846449385296718
0.845310349496754
0.857979917533822
0.850918515669605
0.851209081216357
0.863297518159922
0.858985079775126
0.853354095172867
0.859700084427288
0.870492385625189
0.874089819357823
0.868370598055716
0.866894951892555
0.863297518159922
0.872101905347017
0.852505216962021
0.862674603140637
0.857218868065213
0.85887443260348
0.864754606784332
0.848907783229387
0.856010561061769
0.848571172866195
0.85547547478471
0.846228090953449
0.842921222767566
0.843811476946556
0.839923477667172
0.838115482031486
0.847764078581136
0.855314113948347
0.865234718505996
0.880929518921147
0.888608758998741
0.912757737650554
0.928567854085637
0.903307326911551
0.887077440219336
0.886837588337323
0.881044834941074
0.851218418912922
0.829583102852394
0.823725747100952
0.823725747100952
0.809336012170417
0.816355630108857
0.809336012170417
0.819722431801644
0.806435025551209
0.811946433242874
0.820128313368318
0.803248142233536
0.74134472585501
0.747478522753933
0.856636975450849
1.07524923309417
1.5052532702427
1.7967482351028
1.8489663478118
1.74337860309069
1.29123422554801
0.987271024268068
0.913468309163247
0.879144749672494
0.866793642417501
0.838115482031486
0.820128313368318
0.821105988331915
0.823038637684105
0.824122290971047
0.827323180833585
0.834333461075448
0.830445461796066
0.826557462516682
0.829864330702565
0.838115482031486
0.833203237160024
0.845310349496754
0.847528895547407
0.847819461094158
0.848110026640907
0.85301240800375
0.849341034219352
0.852579157013791
0.86220400136436
0.866239880747287
0.862351881467903
0.869256183386421
0.888479554288357
0.897454522153989
0.893566522874606
0.911263125991024
0.910064156684159
0.917876862362792
0.931976031746576
0.928088032467193
0.918020599430081
0.931104335106327
0.92085645788206
0.934120637745459
0.926635204733443
0.917074962738063
0.910461226366293
0.899271855486258
0.887460503356609
0.884153635170723
0.873213979681325
0.870345031333691
0.859700084427288
0.846177903100753
0.832369299263717
0.836085666240487
0.835823521741103
0.838115482031486
0.829034010030469
0.832340878216354
0.832258652092084
0.84171291576412
0.838664049041371
0.844794346570486
0.84171291576412
0.848907783229387
0.856716345871771
0.863297518159922
0.856102650694654
0.853990608779386
0.863297518159922
0.863297518159922
0.862057172884904
0.866894951892555
0.859700084427288
0.860068733062058
0.866894951892555
0.863510000618653
0.853511312972982
0.848907783229387
0.858271008892619
0.859700084427288
0.859700084427288
0.868536509885957
0.876791804251143
0.896734848653531
0.892846849374145
0.909342497789967
0.939221087064535
0.946140329297592
0.936030994480285
0.904918188360684
0.912688058489446
0.895869280443277
0.864852181180766
0.84715557806435
0.839577121649774
0.841797127282137
0.824606255625738
0.816530879635684
0.834218670867564
0.823725747100952
0.823443993438739
0.822581108683028
0.814659215414472
0.817684329938147
0.760441167543505
0.759100210854271
0.834945460962059
1.04204907102801
1.44219161685893
1.78026518804448
1.83747479819148
1.77153690761747
1.38045985091473
1.00784842463454
0.932564750851797
0.889053333079033
0.874492491657918
0.850182152169729
0.84171291576412
0.84171291576412
0.837013679163428
0.823725747100952
0.835038720073411
0.844850137041136
0.834578507617797
0.83706240743444
0.838757072443918
0.838115482031486
0.84171291576412
0.858186797374603
0.847114202096189
0.857014263721365
0.866894951892555
0.872336154611078
0.847835625281532
0.870492385625189
0.881184311117707
0.880803931434974
0.888479554288357
0.894852912966065
0.905354648617217
0.910856310654678
0.910064156684159
0.922470120640135
0.935246192812594
0.937811094880647
0.943183026395689
0.946941295152679
0.946199329034835
0.949635927743129
0.950056223812289
0.948214204511303
0.930647331917298
0.930635310766154
0.922006698917926
0.910064156684159
0.915825279766459
0.895674421753624
0.879579460244163
0.880160591337663
0.863569000355885
0.863316601510711
0.856102650694654
0.858499655538713
0.848907783229387
0.8428942613019
0.850379694313918
0.85074274033074
0.856102650694654
0.851251390954163
0.854431737884239
0.858354694598574
0.853269475697236
0.859791648248147
0.866894951892555
0.867384519165196
0.876907120271062
0.873019120991678
0.882645950735984
0.872144215084837
0.874089819357823
